__time,/hsrb/wrist_wrench/compensated/header/seq,/hsrb/wrist_wrench/compensated/header/stamp,/hsrb/wrist_wrench/compensated/wrench/force/x,/hsrb/wrist_wrench/compensated/wrench/force/y,/hsrb/wrist_wrench/compensated/wrench/force/z,/hsrb/wrist_wrench/compensated/wrench/torque/x,/hsrb/wrist_wrench/compensated/wrench/torque/y,/hsrb/wrist_wrench/compensated/wrench/torque/z
1694172579.207908,14861.000000,1694172579.204651,0.000000,0.000000,0.000000,0.000000,0.000000,0.000000
1694172579.218751,14862.000000,1694172579.210679,0.000000,0.000000,0.000000,0.000000,0.000000,0.000000
1694172579.227263,14863.000000,1694172579.220773,0.000000,0.000000,0.000000,0.000000,0.000000,0.000000
1694172579.237799,14864.000000,1694172579.230539,0.000000,0.000000,0.000000,0.000000,0.000000,0.000000
1694172579.245065,14865.000000,1694172579.241329,0.000000,0.000000,0.000000,0.000000,0.000000,0.000000
1694172579.252660,14866.000000,1694172579.250642,0.000000,0.000000,0.000000,0.000000,0.000000,0.000000
1694172579.262883,14867.000000,1694172579.261216,0.000000,0.000000,0.000000,0.000000,0.000000,0.000000
1694172579.278224,14868.000000,1694172579.271149,0.000000,0.000000,0.000000,0.000000,0.000000,0.000000
1694172579.286456,14869.000000,1694172579.280664,0.000000,0.000000,0.000000,0.000000,0.000000,0.000000
1694172579.292506,14870.000000,1694172579.290696,0.000000,0.000000,0.000000,0.000000,0.000000,0.000000
1694172579.307806,14871.000000,1694172579.300791,0.000000,0.000000,0.000000,0.000000,0.000000,0.000000
1694172579.316914,14872.000000,1694172579.313929,0.000000,0.000000,0.000000,0.000000,0.000000,0.000000
1694172579.324477,14873.000000,1694172579.320703,0.000000,0.000000,0.000000,0.000000,0.000000,0.000000
1694172579.335318,14874.000000,1694172579.330633,0.000000,0.000000,0.000000,0.000000,0.000000,0.000000
1694172579.344313,14875.000000,1694172579.340773,0.000000,0.000000,0.000000,0.000000,0.000000,0.000000
1694172579.355294,14876.000000,1694172579.350919,0.000000,0.000000,0.000000,0.000000,0.000000,0.000000
1694172579.366605,14877.000000,1694172579.361121,0.000000,0.000000,0.000000,0.000000,0.000000,0.000000
1694172579.377116,14878.000000,1694172579.370669,0.000000,0.000000,0.000000,0.000000,0.000000,0.000000
1694172579.383013,14879.000000,1694172579.380627,0.000000,0.000000,0.000000,0.000000,0.000000,0.000000
1694172579.482414,14880.000000,1694172579.390625,0.000000,0.000000,0.000000,0.000000,0.000000,0.000000
1694172579.493129,14889.000000,1694172579.480630,0.000000,0.000000,0.000000,0.000000,0.000000,0.000000
1694172579.500700,14891.000000,1694172579.500733,0.000000,0.000000,0.000000,0.000000,0.000000,0.000000
1694172579.511674,14892.000000,1694172579.510675,0.000000,0.000000,0.000000,0.000000,0.000000,0.000000
1694172579.526817,14893.000000,1694172579.520629,0.000000,0.000000,0.000000,0.000000,0.000000,0.000000
1694172579.534616,14894.000000,1694172579.530793,0.000000,0.000000,0.000000,0.000000,0.000000,0.000000
1694172579.550290,14895.000000,1694172579.540639,0.000000,0.000000,0.000000,0.000000,0.000000,0.000000
1694172579.557026,14896.000000,1694172579.550627,0.000000,0.000000,0.000000,0.000000,0.000000,0.000000
1694172579.566528,14897.000000,1694172579.560921,0.000000,0.000000,0.000000,0.000000,0.000000,0.000000
1694172579.572667,14898.000000,1694172579.570627,0.000000,0.000000,0.000000,0.000000,0.000000,0.000000
1694172579.587409,14899.000000,1694172579.580734,0.000000,0.000000,0.000000,0.000000,0.000000,0.000000
1694172579.600159,14900.000000,1694172579.591133,0.000000,0.000000,0.000000,0.000000,0.000000,0.000000
1694172579.620760,14902.000000,1694172579.612082,0.000000,0.000000,0.000000,0.000000,0.000000,0.000000
1694172579.632190,14903.000000,1694172579.620623,0.000000,0.000000,0.000000,0.000000,0.000000,0.000000
1694172579.634055,14904.000000,1694172579.630623,0.000000,0.000000,0.000000,0.000000,0.000000,0.000000
1694172579.646518,14905.000000,1694172579.641555,0.000000,0.000000,0.000000,0.000000,0.000000,0.000000
1694172579.658432,14906.000000,1694172579.650721,0.000000,0.000000,0.000000,0.000000,0.000000,0.000000
1694172579.668491,14907.000000,1694172579.660634,0.000000,0.000000,0.000000,0.000000,0.000000,0.000000
1694172579.677756,14908.000000,1694172579.671787,0.000000,0.000000,0.000000,0.000000,0.000000,0.000000
1694172579.685568,14909.000000,1694172579.680626,0.000000,0.000000,0.000000,0.000000,0.000000,0.000000
1694172579.694021,14910.000000,1694172579.690765,0.000000,0.000000,0.000000,0.000000,0.000000,0.000000
1694172579.704224,14911.000000,1694172579.700645,0.000000,0.000000,0.000000,0.000000,0.000000,0.000000
1694172579.715612,14912.000000,1694172579.710615,0.000000,0.000000,0.000000,0.000000,0.000000,0.000000
1694172579.724502,14913.000000,1694172579.720629,0.000000,0.000000,0.000000,0.000000,0.000000,0.000000
1694172579.736002,14914.000000,1694172579.730525,0.000000,0.000000,0.000000,0.000000,0.000000,0.000000
1694172579.746720,14915.000000,1694172579.740839,0.000000,0.000000,0.000000,0.000000,0.000000,0.000000
1694172579.754107,14916.000000,1694172579.751302,0.000000,0.000000,0.000000,0.000000,0.000000,0.000000
1694172579.763183,14917.000000,1694172579.760617,0.000000,0.000000,0.000000,0.000000,0.000000,0.000000
1694172579.777289,14918.000000,1694172579.770849,0.000000,0.000000,0.000000,0.000000,0.000000,0.000000
1694172579.785032,14919.000000,1694172579.780785,0.000000,0.000000,0.000000,0.000000,0.000000,0.000000
1694172579.794030,14920.000000,1694172579.790548,0.000000,0.000000,0.000000,0.000000,0.000000,0.000000
1694172579.807002,14921.000000,1694172579.803075,0.000000,0.000000,0.000000,0.000000,0.000000,0.000000
1694172579.819193,14922.000000,1694172579.810901,0.000000,0.000000,0.000000,0.000000,0.000000,0.000000
1694172579.829046,14923.000000,1694172579.820511,0.000000,0.000000,0.000000,0.000000,0.000000,0.000000
1694172579.836087,14924.000000,1694172579.830677,0.000000,0.000000,0.000000,0.000000,0.000000,0.000000
1694172579.850979,14925.000000,1694172579.841627,0.000000,0.000000,0.000000,0.000000,0.000000,0.000000
1694172579.859544,14926.000000,1694172579.851121,0.000000,0.000000,0.000000,0.000000,0.000000,0.000000
1694172579.868994,14927.000000,1694172579.860649,0.000000,0.000000,0.000000,0.000000,0.000000,0.000000
1694172579.880387,14928.000000,1694172579.870664,0.000000,0.000000,0.000000,0.000000,0.000000,0.000000
1694172579.888961,14929.000000,1694172579.880675,0.000000,0.000000,0.000000,0.000000,0.000000,0.000000
1694172579.901883,14930.000000,1694172579.890423,0.000000,0.000000,0.000000,0.000000,0.000000,0.000000
1694172579.913830,14931.000000,1694172579.901083,0.000000,0.000000,0.000000,0.000000,0.000000,0.000000
1694172579.925580,14932.000000,1694172579.910804,0.000000,0.000000,0.000000,0.000000,0.000000,0.000000
1694172579.934900,14933.000000,1694172579.920612,0.000000,0.000000,0.000000,0.000000,0.000000,0.000000
1694172579.942542,14934.000000,1694172579.930794,0.000000,0.000000,0.000000,0.000000,0.000000,0.000000
1694172579.950230,14935.000000,1694172579.941880,0.000000,0.000000,0.000000,0.000000,0.000000,0.000000
1694172579.960615,14936.000000,1694172579.950669,0.000000,0.000000,0.000000,0.000000,0.000000,0.000000
1694172579.970781,14937.000000,1694172579.960598,0.000000,0.000000,0.000000,0.000000,0.000000,0.000000
1694172579.980465,14938.000000,1694172579.970767,0.000000,0.000000,0.000000,0.000000,0.000000,0.000000
1694172579.990520,14939.000000,1694172579.980626,0.000000,0.000000,0.000000,0.000000,0.000000,0.000000
1694172579.999636,14940.000000,1694172579.990613,0.000000,0.000000,0.000000,0.000000,0.000000,0.000000
1694172580.010135,14941.000000,1694172580.000619,0.000000,0.000000,0.000000,0.000000,0.000000,0.000000
1694172580.022499,14942.000000,1694172580.011311,0.000000,0.000000,0.000000,0.000000,0.000000,0.000000
1694172580.027272,14943.000000,1694172580.020763,0.000000,0.000000,0.000000,0.000000,0.000000,0.000000
1694172580.033738,14944.000000,1694172580.030420,0.000000,0.000000,0.000000,0.000000,0.000000,0.000000
1694172580.048764,14945.000000,1694172580.040620,0.000000,0.000000,0.000000,0.000000,0.000000,0.000000
1694172580.059182,14946.000000,1694172580.050619,0.000000,0.000000,0.000000,0.000000,0.000000,0.000000
1694172580.067804,14947.000000,1694172580.060617,0.000000,0.000000,0.000000,0.000000,0.000000,0.000000
1694172580.077908,14948.000000,1694172580.070669,0.000000,0.000000,0.000000,0.000000,0.000000,0.000000
1694172580.087039,14949.000000,1694172580.080927,0.000000,0.000000,0.000000,0.000000,0.000000,0.000000
1694172580.093848,14950.000000,1694172580.090689,0.000000,0.000000,0.000000,0.000000,0.000000,0.000000
1694172580.112480,14951.000000,1694172580.104626,0.000000,0.000000,0.000000,0.000000,0.000000,0.000000
1694172580.119221,14952.000000,1694172580.110655,0.000000,0.000000,0.000000,0.000000,0.000000,0.000000
1694172580.127513,14953.000000,1694172580.123899,0.000000,0.000000,0.000000,0.000000,0.000000,0.000000
1694172580.137396,14954.000000,1694172580.130921,0.000000,0.000000,0.000000,0.000000,0.000000,0.000000
1694172580.145302,14955.000000,1694172580.140681,0.000000,0.000000,0.000000,0.000000,0.000000,0.000000
1694172580.157463,14956.000000,1694172580.150923,0.000000,0.000000,0.000000,0.000000,0.000000,0.000000
1694172580.168225,14957.000000,1694172580.163066,0.000000,0.000000,0.000000,0.000000,0.000000,0.000000
1694172580.173886,14958.000000,1694172580.170682,0.000000,0.000000,0.000000,0.000000,0.000000,0.000000
1694172580.191036,14959.000000,1694172580.182873,0.000000,0.000000,0.000000,0.000000,0.000000,0.000000
1694172580.198416,14960.000000,1694172580.190849,0.000000,0.000000,0.000000,0.000000,0.000000,0.000000
1694172580.206104,14961.000000,1694172580.200664,0.000000,0.000000,0.000000,0.000000,0.000000,0.000000
1694172580.212287,14962.000000,1694172580.210690,0.000000,0.000000,0.000000,0.000000,0.000000,0.000000
1694172580.225407,14963.000000,1694172580.220627,0.000000,0.000000,0.000000,0.000000,0.000000,0.000000
1694172580.235235,14964.000000,1694172580.230637,0.000000,0.000000,0.000000,0.000000,0.000000,0.000000
1694172580.242895,14965.000000,1694172580.240707,0.000000,0.000000,0.000000,0.000000,0.000000,0.000000
1694172580.262376,14966.000000,1694172580.250681,0.000000,0.000000,0.000000,0.000000,0.000000,0.000000
1694172580.270098,14967.000000,1694172580.260900,0.000000,0.000000,0.000000,0.000000,0.000000,0.000000
1694172580.279542,14968.000000,1694172580.271025,0.000000,0.000000,0.000000,0.000000,0.000000,0.000000
1694172580.288840,14969.000000,1694172580.281673,0.000000,0.000000,0.000000,0.000000,0.000000,0.000000
1694172580.300006,14970.000000,1694172580.290877,0.000000,0.000000,0.000000,0.000000,0.000000,0.000000
1694172580.311670,14971.000000,1694172580.300611,0.000000,0.000000,0.000000,0.000000,0.000000,0.000000
1694172580.314996,14972.000000,1694172580.310682,0.000000,0.000000,0.000000,0.000000,0.000000,0.000000
1694172580.327661,14973.000000,1694172580.320660,0.000000,0.000000,0.000000,0.000000,0.000000,0.000000
1694172580.341144,14974.000000,1694172580.330781,0.000000,0.000000,0.000000,0.000000,0.000000,0.000000
1694172580.348505,14975.000000,1694172580.340496,0.000000,0.000000,0.000000,0.000000,0.000000,0.000000
1694172580.363471,14976.000000,1694172580.350652,0.000000,0.000000,0.000000,0.000000,0.000000,0.000000
1694172580.371750,14977.000000,1694172580.360858,0.000000,0.000000,0.000000,0.000000,0.000000,0.000000
1694172580.384446,14978.000000,1694172580.370625,0.000000,0.000000,0.000000,0.000000,0.000000,0.000000
1694172580.406867,14980.000000,1694172580.390781,0.000000,0.000000,0.000000,0.000000,0.000000,0.000000
1694172580.414581,14981.000000,1694172580.400975,0.000000,0.000000,0.000000,0.000000,0.000000,0.000000
1694172580.433463,14982.000000,1694172580.420660,0.000000,0.000000,0.000000,0.000000,0.000000,0.000000
1694172580.440693,14983.000000,1694172580.431049,0.000000,0.000000,0.000000,0.000000,0.000000,0.000000
1694172580.450429,14984.000000,1694172580.440623,0.000000,0.000000,0.000000,0.000000,0.000000,0.000000
1694172580.456918,14985.000000,1694172580.450664,0.000000,0.000000,0.000000,0.000000,0.000000,0.000000
1694172580.468278,14986.000000,1694172580.460624,0.000000,0.000000,0.000000,0.000000,0.000000,0.000000
1694172580.475710,14987.000000,1694172580.470766,0.000000,0.000000,0.000000,0.000000,0.000000,0.000000
1694172580.487560,14988.000000,1694172580.480746,0.000000,0.000000,0.000000,0.000000,0.000000,0.000000
1694172580.498811,14989.000000,1694172580.490748,0.000000,0.000000,0.000000,0.000000,0.000000,0.000000
1694172580.507855,14990.000000,1694172580.500790,0.000000,0.000000,0.000000,0.000000,0.000000,0.000000
1694172580.515648,14991.000000,1694172580.510627,0.000000,0.000000,0.000000,0.000000,0.000000,0.000000
1694172580.527998,14992.000000,1694172580.520624,0.000000,0.000000,0.000000,0.000000,0.000000,0.000000
1694172580.535088,14993.000000,1694172580.530647,0.000000,0.000000,0.000000,0.000000,0.000000,0.000000
1694172580.544411,14994.000000,1694172580.540849,0.000000,0.000000,0.000000,0.000000,0.000000,0.000000
1694172580.554426,14995.000000,1694172580.550838,0.000000,0.000000,0.000000,0.000000,0.000000,0.000000
1694172580.569902,14996.000000,1694172580.560774,0.000000,0.000000,0.000000,0.000000,0.000000,0.000000
1694172580.576147,14997.000000,1694172580.570879,0.000000,0.000000,0.000000,0.000000,0.000000,0.000000
1694172580.584893,14998.000000,1694172580.580623,0.000000,0.000000,0.000000,0.000000,0.000000,0.000000
1694172580.596668,14999.000000,1694172580.590756,0.000000,0.000000,0.000000,0.000000,0.000000,0.000000
1694172580.603312,15000.000000,1694172580.600930,0.000000,0.000000,0.000000,0.000000,0.000000,0.000000
1694172580.614943,15001.000000,1694172580.610806,0.000000,0.000000,0.000000,0.000000,0.000000,0.000000
1694172580.635092,15002.000000,1694172580.620684,0.000000,0.000000,0.000000,0.000000,0.000000,0.000000
1694172580.644900,15003.000000,1694172580.630693,0.000000,0.000000,0.000000,0.000000,0.000000,0.000000
1694172580.655964,15004.000000,1694172580.640776,0.000000,0.000000,0.000000,0.000000,0.000000,0.000000
1694172580.662452,15005.000000,1694172580.650676,0.000000,0.000000,0.000000,0.000000,0.000000,0.000000
1694172580.671605,15006.000000,1694172580.660635,0.000000,0.000000,0.000000,0.000000,0.000000,0.000000
1694172580.677115,15007.000000,1694172580.670911,0.000000,0.000000,0.000000,0.000000,0.000000,0.000000
1694172580.687520,15008.000000,1694172580.681005,0.000000,0.000000,0.000000,0.000000,0.000000,0.000000
1694172580.696773,15009.000000,1694172580.690753,0.000000,0.000000,0.000000,0.000000,0.000000,0.000000
1694172580.705516,15010.000000,1694172580.700620,0.000000,0.000000,0.000000,0.000000,0.000000,0.000000
1694172580.721350,15011.000000,1694172580.710860,0.000000,0.000000,0.000000,0.000000,0.000000,0.000000
1694172580.729744,15012.000000,1694172580.724844,0.000000,0.000000,0.000000,0.000000,0.000000,0.000000
1694172580.740158,15013.000000,1694172580.731822,0.000000,0.000000,0.000000,0.000000,0.000000,0.000000
1694172580.750822,15014.000000,1694172580.740912,0.000000,0.000000,0.000000,0.000000,0.000000,0.000000
1694172580.758698,15015.000000,1694172580.750750,0.000000,0.000000,0.000000,0.000000,0.000000,0.000000
1694172580.772666,15016.000000,1694172580.760766,0.000000,0.000000,0.000000,0.000000,0.000000,0.000000
1694172580.777249,15017.000000,1694172580.770741,0.000000,0.000000,0.000000,0.000000,0.000000,0.000000
1694172580.787913,15018.000000,1694172580.780780,0.000000,0.000000,0.000000,0.000000,0.000000,0.000000
1694172580.797762,15019.000000,1694172580.790737,0.000000,0.000000,0.000000,0.000000,0.000000,0.000000
1694172580.808622,15020.000000,1694172580.802981,0.000000,0.000000,0.000000,0.000000,0.000000,0.000000
1694172580.820530,15021.000000,1694172580.810876,0.000000,0.000000,0.000000,0.000000,0.000000,0.000000
1694172580.828351,15022.000000,1694172580.820619,0.000000,0.000000,0.000000,0.000000,0.000000,0.000000
1694172580.846655,15023.000000,1694172580.830744,0.000000,0.000000,0.000000,0.000000,0.000000,0.000000
1694172580.865258,15025.000000,1694172580.850749,0.000000,0.000000,0.000000,0.000000,0.000000,0.000000
1694172580.883567,15027.000000,1694172580.870616,0.000000,0.000000,0.000000,0.000000,0.000000,0.000000
1694172580.892957,15028.000000,1694172580.880902,0.000000,0.000000,0.000000,0.000000,0.000000,0.000000
1694172580.898684,15029.000000,1694172580.890624,0.000000,0.000000,0.000000,0.000000,0.000000,0.000000
1694172580.908440,15030.000000,1694172580.900661,0.000000,0.000000,0.000000,0.000000,0.000000,0.000000
1694172580.919964,15031.000000,1694172580.910659,0.000000,0.000000,0.000000,0.000000,0.000000,0.000000
1694172580.933103,15032.000000,1694172580.920783,0.000000,0.000000,0.000000,0.000000,0.000000,0.000000
1694172580.946514,15033.000000,1694172580.930808,0.000000,0.000000,0.000000,0.000000,0.000000,0.000000
1694172580.958365,15035.000000,1694172580.950890,0.000000,0.000000,0.000000,0.000000,0.000000,0.000000
1694172580.981254,15036.000000,1694172580.961782,0.000000,0.000000,0.000000,0.000000,0.000000,0.000000
1694172580.989064,15037.000000,1694172580.970667,0.000000,0.000000,0.000000,0.000000,0.000000,0.000000
1694172580.995237,15038.000000,1694172580.980619,0.000000,0.000000,0.000000,0.000000,0.000000,0.000000
1694172581.007678,15039.000000,1694172580.990752,0.000000,0.000000,0.000000,0.000000,0.000000,0.000000
1694172581.023078,15040.000000,1694172581.000805,0.000000,0.000000,0.000000,0.000000,0.000000,0.000000
1694172581.028497,15041.000000,1694172581.010648,0.000000,0.000000,0.000000,0.000000,0.000000,0.000000
1694172581.039417,15043.000000,1694172581.030614,0.000000,0.000000,0.000000,0.000000,0.000000,0.000000
1694172581.051126,15044.000000,1694172581.040656,0.000000,0.000000,0.000000,0.000000,0.000000,0.000000
1694172581.063026,15045.000000,1694172581.050748,0.000000,0.000000,0.000000,0.000000,0.000000,0.000000
1694172581.080383,15046.000000,1694172581.060825,0.000000,0.000000,0.000000,0.000000,0.000000,0.000000
1694172581.086596,15047.000000,1694172581.070781,0.000000,0.000000,0.000000,0.000000,0.000000,0.000000
1694172581.094675,15048.000000,1694172581.080655,0.000000,0.000000,0.000000,0.000000,0.000000,0.000000
1694172581.102264,15049.000000,1694172581.090772,0.000000,0.000000,0.000000,0.000000,0.000000,0.000000
1694172581.115798,15050.000000,1694172581.100625,0.000000,0.000000,0.000000,0.000000,0.000000,0.000000
1694172581.132817,15051.000000,1694172581.110664,0.000000,0.000000,0.000000,0.000000,0.000000,0.000000
1694172581.137023,15052.000000,1694172581.120620,0.000000,0.000000,0.000000,0.000000,0.000000,0.000000
1694172581.150833,15053.000000,1694172581.130716,0.000000,0.000000,0.000000,0.000000,0.000000,0.000000
1694172581.154894,15054.000000,1694172581.140463,0.000000,0.000000,0.000000,0.000000,0.000000,0.000000
1694172581.162831,15055.000000,1694172581.151695,0.000000,0.000000,0.000000,0.000000,0.000000,0.000000
1694172581.177986,15056.000000,1694172581.160864,0.000000,0.000000,0.000000,0.000000,0.000000,0.000000
1694172581.182879,15057.000000,1694172581.170714,0.000000,0.000000,0.000000,0.000000,0.000000,0.000000
1694172581.189658,15058.000000,1694172581.180655,0.000000,0.000000,0.000000,0.000000,0.000000,0.000000
1694172581.199530,15059.000000,1694172581.192452,0.000000,0.000000,0.000000,0.000000,0.000000,0.000000
1694172581.210777,15060.000000,1694172581.200654,0.000000,0.000000,0.000000,0.000000,0.000000,0.000000
1694172581.216138,15061.000000,1694172581.210644,0.000000,0.000000,0.000000,0.000000,0.000000,0.000000
1694172581.224216,15062.000000,1694172581.220609,0.000000,0.000000,0.000000,0.000000,0.000000,0.000000
1694172581.240669,15063.000000,1694172581.231626,0.000000,0.000000,0.000000,0.000000,0.000000,0.000000
1694172581.255140,15064.000000,1694172581.240875,0.000000,0.000000,0.000000,0.000000,0.000000,0.000000
1694172581.268451,15065.000000,1694172581.250781,0.000000,0.000000,0.000000,0.000000,0.000000,0.000000
