__time,/kms40_driver/wrench/header/seq,/kms40_driver/wrench/header/stamp,/kms40_driver/wrench/wrench/force/x,/kms40_driver/wrench/wrench/force/y,/kms40_driver/wrench/wrench/force/z,/kms40_driver/wrench/wrench/torque/x,/kms40_driver/wrench/wrench/torque/y,/kms40_driver/wrench/wrench/torque/z
1696854133.486771,4980197.000000000,1696854133.486385822,-0.035000000,0.068000000,0.000000000,0.003000000,0.001000000,-0.001000000
1696854133.488489,4980198.000000000,1696854133.488404751,-0.035000000,0.068000000,0.000000000,0.003000000,0.001000000,-0.001000000
1696854133.490515,4980199.000000000,1696854133.490396500,-0.034000000,0.068000000,-0.001000000,0.003000000,0.001000000,-0.001000000
1696854133.492509,4980200.000000000,1696854133.492417336,-0.034000000,0.069000000,0.000000000,0.003000000,0.001000000,-0.001000000
1696854133.494518,4980201.000000000,1696854133.494402409,-0.034000000,0.070000000,0.000000000,0.003000000,0.001000000,-0.001000000
1696854133.496517,4980202.000000000,1696854133.496403933,-0.034000000,0.071000000,0.000000000,0.002000000,0.001000000,-0.001000000
1696854133.498539,4980203.000000000,1696854133.498402596,-0.034000000,0.072000000,-0.001000000,0.002000000,0.001000000,-0.001000000
1696854133.500565,4980204.000000000,1696854133.500417471,-0.033000000,0.073000000,-0.002000000,0.002000000,0.001000000,-0.001000000
1696854133.502653,4980205.000000000,1696854133.502435446,-0.033000000,0.074000000,-0.004000000,0.002000000,0.001000000,-0.001000000
1696854133.504716,4980206.000000000,1696854133.504536152,-0.033000000,0.074000000,-0.005000000,0.002000000,0.001000000,-0.001000000
1696854133.506984,4980207.000000000,1696854133.506536961,-0.032000000,0.073000000,-0.008000000,0.002000000,0.001000000,-0.001000000
1696854133.508595,4980208.000000000,1696854133.508407354,-0.032000000,0.072000000,-0.010000000,0.002000000,0.001000000,-0.001000000
1696854133.510499,4980209.000000000,1696854133.510388851,-0.031000000,0.071000000,-0.013000000,0.003000000,0.001000000,-0.001000000
1696854133.526195,4980216.000000000,1696854133.524388313,-0.030000000,0.075000000,-0.030000000,0.002000000,0.001000000,0.000000000
1696854133.534768,4980221.000000000,1696854133.534381151,-0.030000000,0.073000000,-0.051000000,0.003000000,0.001000000,0.000000000
1696854133.536562,4980222.000000000,1696854133.536408663,-0.029000000,0.073000000,-0.054000000,0.003000000,0.001000000,0.000000000
1696854133.538846,4980223.000000000,1696854133.538380384,-0.030000000,0.074000000,-0.058000000,0.003000000,0.001000000,0.000000000
1696854133.540555,4980224.000000000,1696854133.540408850,-0.030000000,0.075000000,-0.062000000,0.003000000,0.001000000,0.000000000
1696854133.542472,4980225.000000000,1696854133.542386532,-0.030000000,0.076000000,-0.065000000,0.003000000,0.001000000,0.000000000
1696854133.544562,4980226.000000000,1696854133.544407129,-0.030000000,0.077000000,-0.068000000,0.003000000,0.001000000,0.000000000
1696854133.546515,4980227.000000000,1696854133.546406746,-0.031000000,0.078000000,-0.073000000,0.003000000,0.001000000,0.000000000
1696854133.548601,4980228.000000000,1696854133.548449755,-0.031000000,0.078000000,-0.077000000,0.003000000,0.001000000,0.000000000
1696854133.550590,4980229.000000000,1696854133.550399542,-0.032000000,0.078000000,-0.080000000,0.003000000,0.001000000,0.000000000
1696854133.552694,4980230.000000000,1696854133.552506447,-0.032000000,0.078000000,-0.085000000,0.003000000,0.001000000,0.000000000
1696854133.554560,4980231.000000000,1696854133.554384708,-0.032000000,0.077000000,-0.089000000,0.003000000,0.001000000,0.000000000
1696854133.556540,4980232.000000000,1696854133.556437492,-0.032000000,0.076000000,-0.093000000,0.003000000,0.001000000,0.000000000
1696854133.558509,4980233.000000000,1696854133.558408260,-0.032000000,0.076000000,-0.096000000,0.003000000,0.001000000,0.000000000
1696854133.560561,4980234.000000000,1696854133.560418606,-0.033000000,0.076000000,-0.098000000,0.003000000,0.001000000,0.000000000
1696854133.562560,4980235.000000000,1696854133.562386751,-0.033000000,0.077000000,-0.101000000,0.003000000,0.001000000,0.000000000
1696854133.564542,4980236.000000000,1696854133.564426184,-0.033000000,0.078000000,-0.102000000,0.003000000,0.001000000,0.000000000
1696854133.579695,4980243.000000000,1696854133.578421354,-0.034000000,0.076000000,-0.106000000,0.003000000,0.001000000,0.001000000
1696854133.592268,4980249.000000000,1696854133.590362310,-0.034000000,0.075000000,-0.090000000,0.003000000,0.001000000,0.000000000
1696854133.592552,4980250.000000000,1696854133.592447519,-0.034000000,0.075000000,-0.086000000,0.003000000,0.001000000,0.000000000
1696854133.594505,4980251.000000000,1696854133.594400406,-0.033000000,0.075000000,-0.083000000,0.003000000,0.001000000,0.000000000
1696854133.596542,4980252.000000000,1696854133.596410990,-0.033000000,0.073000000,-0.079000000,0.003000000,0.001000000,0.000000000
1696854133.598880,4980253.000000000,1696854133.598404646,-0.033000000,0.072000000,-0.074000000,0.003000000,0.001000000,0.000000000
1696854133.600574,4980254.000000000,1696854133.600431204,-0.033000000,0.070000000,-0.071000000,0.003000000,0.001000000,0.000000000
1696854133.602514,4980255.000000000,1696854133.602388620,-0.033000000,0.069000000,-0.065000000,0.003000000,0.001000000,0.000000000
1696854133.607388,4980257.000000000,1696854133.606364489,-0.032000000,0.067000000,-0.055000000,0.003000000,0.001000000,0.000000000
1696854133.608579,4980258.000000000,1696854133.608406067,-0.031000000,0.067000000,-0.049000000,0.003000000,0.001000000,0.000000000
1696854133.610544,4980259.000000000,1696854133.610404253,-0.031000000,0.067000000,-0.043000000,0.002000000,0.001000000,0.000000000
1696854133.612627,4980260.000000000,1696854133.612419128,-0.031000000,0.068000000,-0.037000000,0.002000000,0.001000000,0.000000000
1696854133.614636,4980261.000000000,1696854133.614396572,-0.031000000,0.068000000,-0.031000000,0.002000000,0.001000000,0.000000000
1696854133.616767,4980262.000000000,1696854133.616429567,-0.031000000,0.067000000,-0.027000000,0.002000000,0.001000000,0.000000000
1696854133.618634,4980263.000000000,1696854133.618398666,-0.031000000,0.067000000,-0.022000000,0.002000000,0.001000000,0.000000000
1696854133.620661,4980264.000000000,1696854133.620416880,-0.031000000,0.065000000,-0.017000000,0.002000000,0.001000000,0.000000000
1696854133.642629,4980275.000000000,1696854133.642407894,-0.030000000,0.062000000,0.022000000,0.002000000,0.001000000,-0.001000000
1696854133.644541,4980276.000000000,1696854133.644419670,-0.030000000,0.061000000,0.023000000,0.002000000,0.001000000,-0.001000000
1696854133.649972,4980278.000000000,1696854133.648425817,-0.029000000,0.059000000,0.025000000,0.002000000,0.001000000,-0.001000000
1696854133.650660,4980279.000000000,1696854133.650433302,-0.029000000,0.059000000,0.024000000,0.002000000,0.001000000,-0.001000000
1696854133.652596,4980280.000000000,1696854133.652412653,-0.029000000,0.059000000,0.026000000,0.002000000,0.001000000,-0.001000000
1696854133.654618,4980281.000000000,1696854133.654391050,-0.029000000,0.060000000,0.026000000,0.002000000,0.001000000,-0.001000000
1696854133.656798,4980282.000000000,1696854133.656404018,-0.029000000,0.060000000,0.027000000,0.002000000,0.001000000,-0.001000000
1696854133.658719,4980283.000000000,1696854133.658470392,-0.029000000,0.061000000,0.026000000,0.002000000,0.001000000,-0.001000000
1696854133.660637,4980284.000000000,1696854133.660404205,-0.029000000,0.062000000,0.027000000,0.002000000,0.001000000,-0.001000000
1696854133.662633,4980285.000000000,1696854133.662391901,-0.029000000,0.062000000,0.028000000,0.002000000,0.001000000,-0.001000000
1696854133.664583,4980286.000000000,1696854133.664402723,-0.029000000,0.062000000,0.025000000,0.002000000,0.001000000,-0.001000000
1696854133.683286,4980295.000000000,1696854133.682420015,-0.027000000,0.061000000,0.012000000,0.003000000,0.001000000,-0.001000000
1696854133.684513,4980296.000000000,1696854133.684424400,-0.027000000,0.061000000,0.010000000,0.003000000,0.001000000,-0.001000000
1696854133.687371,4980297.000000000,1696854133.686378956,-0.027000000,0.061000000,0.008000000,0.003000000,0.001000000,-0.001000000
1696854133.688575,4980298.000000000,1696854133.688421726,-0.027000000,0.061000000,0.006000000,0.003000000,0.001000000,-0.001000000
1696854133.690647,4980299.000000000,1696854133.690412998,-0.026000000,0.060000000,0.004000000,0.003000000,0.001000000,-0.001000000
1696854133.692604,4980300.000000000,1696854133.692416668,-0.026000000,0.059000000,0.002000000,0.003000000,0.001000000,-0.001000000
1696854133.694692,4980301.000000000,1696854133.694404364,-0.026000000,0.059000000,0.000000000,0.003000000,0.001000000,-0.001000000
1696854133.696592,4980302.000000000,1696854133.696424723,-0.025000000,0.059000000,-0.001000000,0.003000000,0.001000000,-0.001000000
1696854133.698676,4980303.000000000,1696854133.698425770,-0.025000000,0.059000000,-0.002000000,0.003000000,0.001000000,-0.001000000
1696854133.700597,4980304.000000000,1696854133.700400352,-0.025000000,0.061000000,-0.003000000,0.003000000,0.001000000,-0.001000000
1696854133.702547,4980305.000000000,1696854133.702431440,-0.025000000,0.062000000,-0.003000000,0.003000000,0.001000000,-0.001000000
1696854133.704601,4980306.000000000,1696854133.704437494,-0.025000000,0.063000000,-0.004000000,0.003000000,0.001000000,-0.001000000
1696854133.706731,4980307.000000000,1696854133.706419706,-0.025000000,0.064000000,-0.005000000,0.003000000,0.001000000,-0.001000000
1696854133.708553,4980308.000000000,1696854133.708401680,-0.025000000,0.065000000,-0.006000000,0.003000000,0.001000000,-0.001000000
1696854133.722687,4980314.000000000,1696854133.720408201,-0.024000000,0.063000000,-0.011000000,0.003000000,0.001000000,-0.001000000
1696854133.723035,4980315.000000000,1696854133.722399235,-0.024000000,0.064000000,-0.011000000,0.003000000,0.001000000,-0.001000000
1696854133.724573,4980316.000000000,1696854133.724445581,-0.025000000,0.065000000,-0.009000000,0.003000000,0.001000000,-0.001000000
1696854133.726501,4980317.000000000,1696854133.726408243,-0.025000000,0.066000000,-0.010000000,0.002000000,0.001000000,-0.001000000
1696854133.728527,4980318.000000000,1696854133.728439093,-0.025000000,0.068000000,-0.008000000,0.002000000,0.001000000,-0.001000000
1696854133.730507,4980319.000000000,1696854133.730401993,-0.025000000,0.068000000,-0.009000000,0.002000000,0.001000000,-0.001000000
1696854133.732675,4980320.000000000,1696854133.732414007,-0.026000000,0.067000000,-0.008000000,0.002000000,0.001000000,-0.001000000
1696854133.734966,4980321.000000000,1696854133.734381676,-0.026000000,0.067000000,-0.008000000,0.002000000,0.000000000,-0.001000000
1696854133.736578,4980322.000000000,1696854133.736408949,-0.026000000,0.066000000,-0.008000000,0.002000000,0.001000000,-0.001000000
1696854133.738617,4980323.000000000,1696854133.738400221,-0.026000000,0.065000000,-0.008000000,0.002000000,0.001000000,-0.001000000
1696854133.740860,4980324.000000000,1696854133.740404844,-0.026000000,0.064000000,-0.008000000,0.003000000,0.001000000,-0.001000000
1696854133.742492,4980325.000000000,1696854133.742381573,-0.026000000,0.064000000,-0.007000000,0.003000000,0.001000000,-0.001000000
1696854133.744603,4980326.000000000,1696854133.744432688,-0.027000000,0.064000000,-0.006000000,0.003000000,0.001000000,-0.001000000
1696854133.746590,4980327.000000000,1696854133.746425152,-0.028000000,0.064000000,-0.003000000,0.002000000,0.001000000,-0.001000000
1696854133.748528,4980328.000000000,1696854133.748415470,-0.028000000,0.065000000,-0.002000000,0.002000000,0.001000000,-0.001000000
1696854133.750470,4980329.000000000,1696854133.750383854,-0.029000000,0.065000000,-0.001000000,0.002000000,0.001000000,-0.001000000
1696854133.752496,4980330.000000000,1696854133.752413034,-0.029000000,0.065000000,0.000000000,0.002000000,0.001000000,-0.001000000
1696854133.754546,4980331.000000000,1696854133.754405737,-0.030000000,0.064000000,0.000000000,0.002000000,0.001000000,-0.001000000
1696854133.777900,4980342.000000000,1696854133.776415348,-0.036000000,0.058000000,0.013000000,0.003000000,0.001000000,-0.001000000
1696854133.778769,4980343.000000000,1696854133.778417110,-0.036000000,0.058000000,0.014000000,0.003000000,0.001000000,-0.001000000
1696854133.782556,4980344.000000000,1696854133.780409336,-0.037000000,0.057000000,0.015000000,0.003000000,0.001000000,-0.001000000
1696854133.783002,4980345.000000000,1696854133.782393694,-0.037000000,0.056000000,0.015000000,0.003000000,0.001000000,-0.001000000
1696854133.784832,4980346.000000000,1696854133.784551144,-0.037000000,0.055000000,0.016000000,0.003000000,0.001000000,-0.001000000
1696854133.786566,4980347.000000000,1696854133.786406755,-0.038000000,0.055000000,0.018000000,0.003000000,0.001000000,-0.001000000
1696854133.788575,4980348.000000000,1696854133.788398504,-0.038000000,0.054000000,0.019000000,0.003000000,0.001000000,-0.001000000
1696854133.790600,4980349.000000000,1696854133.790417671,-0.039000000,0.055000000,0.020000000,0.003000000,0.001000000,-0.001000000
1696854133.792705,4980350.000000000,1696854133.792433500,-0.039000000,0.057000000,0.022000000,0.003000000,0.001000000,-0.001000000
1696854133.794651,4980351.000000000,1696854133.794447184,-0.040000000,0.058000000,0.025000000,0.003000000,0.001000000,-0.002000000
1696854133.796796,4980352.000000000,1696854133.796427727,-0.041000000,0.060000000,0.026000000,0.003000000,0.001000000,-0.002000000
1696854133.809161,4980358.000000000,1696854133.808460236,-0.044000000,0.063000000,0.028000000,0.003000000,0.001000000,-0.002000000
1696854133.811073,4980359.000000000,1696854133.810430765,-0.045000000,0.064000000,0.028000000,0.003000000,0.001000000,-0.002000000
1696854133.812662,4980360.000000000,1696854133.812530756,-0.045000000,0.066000000,0.027000000,0.003000000,0.001000000,-0.002000000
1696854133.814639,4980361.000000000,1696854133.814407825,-0.046000000,0.068000000,0.027000000,0.003000000,0.001000000,-0.002000000
1696854133.816493,4980362.000000000,1696854133.816401482,-0.047000000,0.071000000,0.028000000,0.003000000,0.001000000,-0.002000000
1696854133.819653,4980363.000000000,1696854133.819463968,-0.048000000,0.074000000,0.026000000,0.002000000,0.001000000,-0.002000000
1696854133.820729,4980364.000000000,1696854133.820595264,-0.048000000,0.077000000,0.025000000,0.002000000,0.001000000,-0.002000000
1696854133.822516,4980365.000000000,1696854133.822402954,-0.049000000,0.078000000,0.024000000,0.002000000,0.001000000,-0.001000000
1696854133.824629,4980366.000000000,1696854133.824406624,-0.050000000,0.079000000,0.021000000,0.002000000,0.001000000,-0.001000000
1696854133.827817,4980367.000000000,1696854133.826453447,-0.050000000,0.080000000,0.018000000,0.002000000,0.001000000,-0.001000000
1696854133.828594,4980368.000000000,1696854133.828410864,-0.051000000,0.081000000,0.015000000,0.002000000,0.001000000,-0.001000000
1696854133.830525,4980369.000000000,1696854133.830404758,-0.050000000,0.082000000,0.011000000,0.002000000,0.001000000,-0.001000000
1696854133.832552,4980370.000000000,1696854133.832402468,-0.051000000,0.083000000,0.009000000,0.002000000,0.001000000,-0.001000000
1696854133.834603,4980371.000000000,1696854133.834467173,-0.051000000,0.085000000,0.005000000,0.002000000,0.001000000,-0.001000000
1696854133.836531,4980372.000000000,1696854133.836398125,-0.052000000,0.087000000,0.002000000,0.002000000,0.001000000,-0.001000000
1696854133.838543,4980373.000000000,1696854133.838392735,-0.052000000,0.090000000,0.000000000,0.002000000,0.001000000,-0.001000000
1696854133.848630,4980378.000000000,1696854133.848444223,-0.053000000,0.096000000,-0.018000000,0.002000000,0.001000000,-0.001000000
1696854133.850539,4980379.000000000,1696854133.850402594,-0.053000000,0.096000000,-0.022000000,0.002000000,0.001000000,0.000000000
1696854133.852579,4980380.000000000,1696854133.852415562,-0.053000000,0.095000000,-0.027000000,0.002000000,0.001000000,0.000000000
1696854133.854584,4980381.000000000,1696854133.854408979,-0.052000000,0.095000000,-0.030000000,0.002000000,0.001000000,0.000000000
1696854133.856609,4980382.000000000,1696854133.856448412,-0.052000000,0.095000000,-0.033000000,0.002000000,0.001000000,0.000000000
1696854133.858540,4980383.000000000,1696854133.858416796,-0.052000000,0.096000000,-0.036000000,0.002000000,0.001000000,0.000000000
1696854133.860842,4980384.000000000,1696854133.860429287,-0.051000000,0.096000000,-0.038000000,0.002000000,0.001000000,0.000000000
1696854133.862498,4980385.000000000,1696854133.862389803,-0.051000000,0.097000000,-0.040000000,0.002000000,0.001000000,0.000000000
1696854133.864501,4980386.000000000,1696854133.864418745,-0.051000000,0.098000000,-0.042000000,0.002000000,0.001000000,0.000000000
1696854133.866892,4980387.000000000,1696854133.866400957,-0.051000000,0.098000000,-0.044000000,0.002000000,0.001000000,0.000000000
1696854133.868551,4980388.000000000,1696854133.868400812,-0.050000000,0.097000000,-0.045000000,0.002000000,0.001000000,0.000000000
1696854133.871115,4980389.000000000,1696854133.870381832,-0.050000000,0.095000000,-0.047000000,0.002000000,0.001000000,0.000000000
1696854133.872481,4980390.000000000,1696854133.872401953,-0.049000000,0.094000000,-0.049000000,0.002000000,0.001000000,0.000000000
1696854133.875278,4980391.000000000,1696854133.874397516,-0.048000000,0.091000000,-0.050000000,0.002000000,0.001000000,0.000000000
1696854133.876510,4980392.000000000,1696854133.876420498,-0.047000000,0.089000000,-0.051000000,0.002000000,0.001000000,0.000000000
1696854133.878517,4980393.000000000,1696854133.878431797,-0.046000000,0.088000000,-0.051000000,0.003000000,0.001000000,0.000000000
1696854133.880596,4980394.000000000,1696854133.880411625,-0.046000000,0.087000000,-0.050000000,0.003000000,0.001000000,0.000000000
1696854133.897889,4980402.000000000,1696854133.896440268,-0.041000000,0.076000000,-0.037000000,0.003000000,0.001000000,0.000000000
1696854133.916548,4980411.000000000,1696854133.914400578,-0.036000000,0.066000000,-0.017000000,0.003000000,0.001000000,-0.001000000
1696854133.932747,4980420.000000000,1696854133.932420015,-0.034000000,0.060000000,-0.004000000,0.003000000,0.001000000,-0.001000000
1696854133.969564,4980438.000000000,1696854133.968432903,-0.031000000,0.056000000,0.003000000,0.003000000,0.001000000,-0.001000000
1696854133.978105,4980442.000000000,1696854133.976428270,-0.031000000,0.058000000,0.007000000,0.002000000,0.001000000,-0.001000000
1696854133.978693,4980443.000000000,1696854133.978394985,-0.032000000,0.060000000,0.010000000,0.002000000,0.001000000,-0.001000000
1696854133.980553,4980444.000000000,1696854133.980434895,-0.032000000,0.060000000,0.010000000,0.002000000,0.001000000,-0.001000000
1696854133.982574,4980445.000000000,1696854133.982401133,-0.032000000,0.060000000,0.010000000,0.002000000,0.001000000,-0.001000000
1696854133.984510,4980446.000000000,1696854133.984427452,-0.033000000,0.060000000,0.011000000,0.002000000,0.001000000,-0.001000000
1696854133.986603,4980447.000000000,1696854133.986429214,-0.032000000,0.059000000,0.011000000,0.002000000,0.001000000,-0.001000000
1696854133.988534,4980448.000000000,1696854133.988460064,-0.032000000,0.058000000,0.011000000,0.002000000,0.001000000,-0.001000000
1696854133.990467,4980449.000000000,1696854133.990387201,-0.032000000,0.058000000,0.011000000,0.003000000,0.001000000,-0.001000000
1696854133.992496,4980450.000000000,1696854133.992418528,-0.032000000,0.058000000,0.012000000,0.003000000,0.001000000,-0.001000000
1696854133.994526,4980451.000000000,1696854133.994418859,-0.033000000,0.058000000,0.013000000,0.003000000,0.001000000,-0.001000000
1696854133.996621,4980452.000000000,1696854133.996469021,-0.033000000,0.059000000,0.013000000,0.003000000,0.001000000,-0.001000000
1696854133.998524,4980453.000000000,1696854133.998371124,-0.033000000,0.061000000,0.015000000,0.002000000,0.001000000,-0.001000000
1696854134.000584,4980454.000000000,1696854134.000426769,-0.034000000,0.062000000,0.016000000,0.002000000,0.001000000,-0.001000000
