__time,/hsrb/wrist_wrench/compensated/header/seq,/hsrb/wrist_wrench/compensated/header/stamp,/hsrb/wrist_wrench/compensated/wrench/force/x,/hsrb/wrist_wrench/compensated/wrench/force/y,/hsrb/wrist_wrench/compensated/wrench/force/z,/hsrb/wrist_wrench/compensated/wrench/torque/x,/hsrb/wrist_wrench/compensated/wrench/torque/y,/hsrb/wrist_wrench/compensated/wrench/torque/z
1694175673.536809,87830.000000,1694175673.526467,0.000000,0.000000,0.000000,0.000000,0.000000,0.000000
1694175673.544236,87831.000000,1694175673.536407,0.000000,0.000000,0.000000,0.000000,0.000000,0.000000
1694175673.561265,87832.000000,1694175673.547594,0.000000,0.000000,0.000000,0.000000,0.000000,0.000000
1694175673.567287,87833.000000,1694175673.556696,0.000000,0.000000,0.000000,0.000000,0.000000,0.000000
1694175673.592701,87835.000000,1694175673.576306,0.000000,0.000000,0.000000,0.000000,0.000000,0.000000
1694175673.599096,87836.000000,1694175673.586474,0.000000,0.000000,0.000000,0.000000,0.000000,0.000000
1694175673.607123,87837.000000,1694175673.596564,0.000000,0.000000,0.000000,0.000000,0.000000,0.000000
1694175673.617291,87838.000000,1694175673.606491,0.000000,0.000000,0.000000,0.000000,0.000000,0.000000
1694175673.632247,87839.000000,1694175673.616370,0.000000,0.000000,0.000000,0.000000,0.000000,0.000000
1694175673.642565,87840.000000,1694175673.626600,0.000000,0.000000,0.000000,0.000000,0.000000,0.000000
1694175673.656788,87841.000000,1694175673.636348,0.000000,0.000000,0.000000,0.000000,0.000000,0.000000
1694175673.661623,87842.000000,1694175673.646441,0.000000,0.000000,0.000000,0.000000,0.000000,0.000000
1694175673.668086,87843.000000,1694175673.656976,0.000000,0.000000,0.000000,0.000000,0.000000,0.000000
1694175673.681254,87844.000000,1694175673.666499,0.000000,0.000000,0.000000,0.000000,0.000000,0.000000
1694175673.694942,87845.000000,1694175673.676355,0.000000,0.000000,0.000000,0.000000,0.000000,0.000000
1694175673.710667,87847.000000,1694175673.696585,0.000000,0.000000,0.000000,0.000000,0.000000,0.000000
1694175673.722795,87848.000000,1694175673.706455,0.000000,0.000000,0.000000,0.000000,0.000000,0.000000
1694175673.739577,87850.000000,1694175673.726437,0.000000,0.000000,0.000000,0.000000,0.000000,0.000000
1694175673.746286,87851.000000,1694175673.736495,0.000000,0.000000,0.000000,0.000000,0.000000,0.000000
1694175673.757593,87852.000000,1694175673.746474,0.000000,0.000000,0.000000,0.000000,0.000000,0.000000
1694175673.764761,87853.000000,1694175673.756445,0.000000,0.000000,0.000000,0.000000,0.000000,0.000000
1694175673.772591,87854.000000,1694175673.766615,0.000000,0.000000,0.000000,0.000000,0.000000,0.000000
1694175673.785097,87855.000000,1694175673.776294,0.000000,0.000000,0.000000,0.000000,0.000000,0.000000
1694175673.793308,87856.000000,1694175673.786859,0.000000,0.000000,0.000000,0.000000,0.000000,0.000000
1694175673.801686,87857.000000,1694175673.796726,0.000000,0.000000,0.000000,0.000000,0.000000,0.000000
1694175673.814288,87858.000000,1694175673.806438,0.000000,0.000000,0.000000,0.000000,0.000000,0.000000
1694175673.825340,87859.000000,1694175673.816354,0.000000,0.000000,0.000000,0.000000,0.000000,0.000000
1694175673.834545,87860.000000,1694175673.826443,0.000000,0.000000,0.000000,0.000000,0.000000,0.000000
1694175673.846605,87861.000000,1694175673.836567,0.000000,0.000000,0.000000,0.000000,0.000000,0.000000
1694175673.854347,87862.000000,1694175673.846455,0.000000,0.000000,0.000000,0.000000,0.000000,0.000000
1694175673.866083,87863.000000,1694175673.859361,0.000000,0.000000,0.000000,0.000000,0.000000,0.000000
1694175673.873977,87864.000000,1694175673.866648,0.000000,0.000000,0.000000,0.000000,0.000000,0.000000
1694175673.883777,87865.000000,1694175673.876436,0.000000,0.000000,0.000000,0.000000,0.000000,0.000000
1694175673.893783,87866.000000,1694175673.886447,0.000000,0.000000,0.000000,0.000000,0.000000,0.000000
1694175673.906080,87867.000000,1694175673.896992,0.000000,0.000000,0.000000,0.000000,0.000000,0.000000
1694175673.917762,87868.000000,1694175673.906491,0.000000,0.000000,0.000000,0.000000,0.000000,0.000000
1694175673.928377,87869.000000,1694175673.917127,0.000000,0.000000,0.000000,0.000000,0.000000,0.000000
1694175673.938764,87870.000000,1694175673.926476,0.000000,0.000000,0.000000,0.000000,0.000000,0.000000
1694175673.944169,87871.000000,1694175673.936348,0.000000,0.000000,0.000000,0.000000,0.000000,0.000000
1694175673.953763,87872.000000,1694175673.946352,0.000000,0.000000,0.000000,0.000000,0.000000,0.000000
1694175673.963275,87873.000000,1694175673.956431,0.000000,0.000000,0.000000,0.000000,0.000000,0.000000
1694175673.973952,87874.000000,1694175673.967068,0.000000,0.000000,0.000000,0.000000,0.000000,0.000000
1694175673.984350,87875.000000,1694175673.976500,0.000000,0.000000,0.000000,0.000000,0.000000,0.000000
1694175674.000072,87876.000000,1694175673.987936,0.000000,0.000000,0.000000,0.000000,0.000000,0.000000
1694175674.006496,87877.000000,1694175673.996643,0.000000,0.000000,0.000000,0.000000,0.000000,0.000000
1694175674.016993,87878.000000,1694175674.006603,0.000000,0.000000,0.000000,0.000000,0.000000,0.000000
1694175674.023633,87879.000000,1694175674.016352,0.000000,0.000000,0.000000,0.000000,0.000000,0.000000
1694175674.037142,87880.000000,1694175674.026449,0.000000,0.000000,0.000000,0.000000,0.000000,0.000000
1694175674.047618,87881.000000,1694175674.036500,0.000000,0.000000,0.000000,0.000000,0.000000,0.000000
1694175674.057512,87882.000000,1694175674.046584,0.000000,0.000000,0.000000,0.000000,0.000000,0.000000
1694175674.066638,87883.000000,1694175674.057513,0.000000,0.000000,0.000000,0.000000,0.000000,0.000000
1694175674.079311,87884.000000,1694175674.066573,0.000000,0.000000,0.000000,0.000000,0.000000,0.000000
1694175674.092211,87885.000000,1694175674.076595,0.000000,0.000000,0.000000,0.000000,0.000000,0.000000
1694175674.103371,87886.000000,1694175674.086340,0.000000,0.000000,0.000000,0.000000,0.000000,0.000000
1694175674.120094,87888.000000,1694175674.106596,0.000000,0.000000,0.000000,0.000000,0.000000,0.000000
1694175674.136177,87889.000000,1694175674.116553,0.000000,0.000000,0.000000,0.000000,0.000000,0.000000
1694175674.146136,87891.000000,1694175674.136360,0.000000,0.000000,0.000000,0.000000,0.000000,0.000000
1694175674.154185,87892.000000,1694175674.146333,0.000000,0.000000,0.000000,0.000000,0.000000,0.000000
1694175674.162027,87893.000000,1694175674.156371,0.000000,0.000000,0.000000,0.000000,0.000000,0.000000
1694175674.176210,87894.000000,1694175674.166500,0.000000,0.000000,0.000000,0.000000,0.000000,0.000000
1694175674.182557,87895.000000,1694175674.176323,0.000000,0.000000,0.000000,0.000000,0.000000,0.000000
1694175674.188467,87896.000000,1694175674.186476,0.000000,0.000000,0.000000,0.000000,0.000000,0.000000
1694175674.201357,87897.000000,1694175674.198404,0.000000,0.000000,0.000000,0.000000,0.000000,0.000000
1694175674.212266,87898.000000,1694175674.206469,0.000000,0.000000,0.000000,0.000000,0.000000,0.000000
1694175674.223721,87899.000000,1694175674.216557,0.000000,0.000000,0.000000,0.000000,0.000000,0.000000
1694175674.229279,87900.000000,1694175674.226437,0.000000,0.000000,0.000000,0.000000,0.000000,0.000000
1694175674.241974,87901.000000,1694175674.236468,0.000000,0.000000,0.000000,0.000000,0.000000,0.000000
1694175674.251896,87902.000000,1694175674.246442,0.000000,0.000000,0.000000,0.000000,0.000000,0.000000
1694175674.263933,87903.000000,1694175674.257390,0.000000,0.000000,0.000000,0.000000,0.000000,0.000000
1694175674.275172,87904.000000,1694175674.267375,0.000000,0.000000,0.000000,0.000000,0.000000,0.000000
1694175674.287614,87905.000000,1694175674.276477,0.000000,0.000000,0.000000,0.000000,0.000000,0.000000
1694175674.293217,87906.000000,1694175674.286989,0.000000,0.000000,0.000000,0.000000,0.000000,0.000000
1694175674.304227,87907.000000,1694175674.296951,0.000000,0.000000,0.000000,0.000000,0.000000,0.000000
1694175674.313801,87908.000000,1694175674.306574,0.000000,0.000000,0.000000,0.000000,0.000000,0.000000
1694175674.325889,87909.000000,1694175674.316428,0.000000,0.000000,0.000000,0.000000,0.000000,0.000000
1694175674.337095,87910.000000,1694175674.326485,0.000000,0.000000,0.000000,0.000000,0.000000,0.000000
1694175674.344085,87911.000000,1694175674.337167,0.000000,0.000000,0.000000,0.000000,0.000000,0.000000
1694175674.350952,87912.000000,1694175674.346469,0.000000,0.000000,0.000000,0.000000,0.000000,0.000000
1694175674.361931,87913.000000,1694175674.356596,0.000000,0.000000,0.000000,0.000000,0.000000,0.000000
1694175674.372748,87914.000000,1694175674.366354,0.000000,0.000000,0.000000,0.000000,0.000000,0.000000
1694175674.381968,87915.000000,1694175674.376338,0.000000,0.000000,0.000000,0.000000,0.000000,0.000000
1694175674.393864,87916.000000,1694175674.386688,0.000000,0.000000,0.000000,0.000000,0.000000,0.000000
1694175674.404034,87917.000000,1694175674.396685,0.000000,0.000000,0.000000,0.000000,0.000000,0.000000
1694175674.411034,87918.000000,1694175674.406428,0.000000,0.000000,0.000000,0.000000,0.000000,0.000000
1694175674.420386,87919.000000,1694175674.416350,0.000000,0.000000,0.000000,0.000000,0.000000,0.000000
1694175674.430659,87920.000000,1694175674.426592,0.000000,0.000000,0.000000,0.000000,0.000000,0.000000
1694175674.442354,87921.000000,1694175674.436457,0.000000,0.000000,0.000000,0.000000,0.000000,0.000000
1694175674.451729,87922.000000,1694175674.448416,0.000000,0.000000,0.000000,0.000000,0.000000,0.000000
1694175674.462976,87923.000000,1694175674.456396,0.000000,0.000000,0.000000,0.000000,0.000000,0.000000
1694175674.472182,87924.000000,1694175674.466433,0.000000,0.000000,0.000000,0.000000,0.000000,0.000000
1694175674.484717,87925.000000,1694175674.476454,0.000000,0.000000,0.000000,0.000000,0.000000,0.000000
1694175674.494334,87926.000000,1694175674.486432,0.000000,0.000000,0.000000,0.000000,0.000000,0.000000
1694175674.502148,87927.000000,1694175674.497908,0.000000,0.000000,0.000000,0.000000,0.000000,0.000000
1694175674.511659,87928.000000,1694175674.506465,0.000000,0.000000,0.000000,0.000000,0.000000,0.000000
1694175674.526226,87929.000000,1694175674.516450,0.000000,0.000000,0.000000,0.000000,0.000000,0.000000
1694175674.531784,87930.000000,1694175674.527481,0.000000,0.000000,0.000000,0.000000,0.000000,0.000000
1694175674.544699,87931.000000,1694175674.540951,0.000000,0.000000,0.000000,0.000000,0.000000,0.000000
1694175674.558116,87932.000000,1694175674.547825,0.000000,0.000000,0.000000,0.000000,0.000000,0.000000
1694175674.565223,87933.000000,1694175674.556418,0.000000,0.000000,0.000000,0.000000,0.000000,0.000000
1694175674.574960,87934.000000,1694175674.566481,0.000000,0.000000,0.000000,0.000000,0.000000,0.000000
1694175674.588249,87935.000000,1694175674.576252,0.000000,0.000000,0.000000,0.000000,0.000000,0.000000
1694175674.595633,87936.000000,1694175674.586423,0.000000,0.000000,0.000000,0.000000,0.000000,0.000000
1694175674.604220,87937.000000,1694175674.596598,0.000000,0.000000,0.000000,0.000000,0.000000,0.000000
1694175674.610813,87938.000000,1694175674.606428,0.000000,0.000000,0.000000,0.000000,0.000000,0.000000
1694175674.624252,87939.000000,1694175674.616338,0.000000,0.000000,0.000000,0.000000,0.000000,0.000000
1694175674.630899,87940.000000,1694175674.627087,0.000000,0.000000,0.000000,0.000000,0.000000,0.000000
1694175674.645170,87941.000000,1694175674.636457,0.000000,0.000000,0.000000,0.000000,0.000000,0.000000
1694175674.657752,87942.000000,1694175674.646418,0.000000,0.000000,0.000000,0.000000,0.000000,0.000000
1694175674.668807,87943.000000,1694175674.656356,0.000000,0.000000,0.000000,0.000000,0.000000,0.000000
1694175674.680175,87944.000000,1694175674.666721,0.000000,0.000000,0.000000,0.000000,0.000000,0.000000
1694175674.692069,87945.000000,1694175674.676428,0.000000,0.000000,0.000000,0.000000,0.000000,0.000000
1694175674.695845,87946.000000,1694175674.686433,0.000000,0.000000,0.000000,0.000000,0.000000,0.000000
1694175674.705203,87947.000000,1694175674.696365,0.000000,0.000000,0.000000,0.000000,0.000000,0.000000
1694175674.713286,87948.000000,1694175674.706470,0.000000,0.000000,0.000000,0.000000,0.000000,0.000000
1694175674.724187,87949.000000,1694175674.717093,0.000000,0.000000,0.000000,0.000000,0.000000,0.000000
1694175674.733700,87950.000000,1694175674.726422,0.000000,0.000000,0.000000,0.000000,0.000000,0.000000
1694175674.741076,87951.000000,1694175674.736574,0.000000,0.000000,0.000000,0.000000,0.000000,0.000000
1694175674.753244,87952.000000,1694175674.746331,0.000000,0.000000,0.000000,0.000000,0.000000,0.000000
1694175674.761861,87953.000000,1694175674.756916,0.000000,0.000000,0.000000,0.000000,0.000000,0.000000
1694175674.771482,87954.000000,1694175674.766877,0.000000,0.000000,0.000000,0.000000,0.000000,0.000000
1694175674.780781,87955.000000,1694175674.776439,0.000000,0.000000,0.000000,0.000000,0.000000,0.000000
1694175674.792227,87956.000000,1694175674.787834,0.000000,0.000000,0.000000,0.000000,0.000000,0.000000
1694175674.803735,87957.000000,1694175674.796446,0.000000,0.000000,0.000000,0.000000,0.000000,0.000000
1694175674.812392,87958.000000,1694175674.806581,0.000000,0.000000,0.000000,0.000000,0.000000,0.000000
1694175674.823608,87959.000000,1694175674.816956,0.000000,0.000000,0.000000,0.000000,0.000000,0.000000
1694175674.839513,87960.000000,1694175674.826571,0.000000,0.000000,0.000000,0.000000,0.000000,0.000000
1694175674.848915,87961.000000,1694175674.836465,0.000000,0.000000,0.000000,0.000000,0.000000,0.000000
1694175674.856260,87962.000000,1694175674.846461,0.000000,0.000000,0.000000,0.000000,0.000000,0.000000
1694175674.866134,87963.000000,1694175674.856338,0.000000,0.000000,0.000000,0.000000,0.000000,0.000000
1694175674.873320,87964.000000,1694175674.866435,0.000000,0.000000,0.000000,0.000000,0.000000,0.000000
1694175674.881518,87965.000000,1694175674.876592,0.000000,0.000000,0.000000,0.000000,0.000000,0.000000
1694175674.894826,87966.000000,1694175674.886438,0.000000,0.000000,0.000000,0.000000,0.000000,0.000000
1694175674.908471,87967.000000,1694175674.899463,0.000000,0.000000,0.000000,0.000000,0.000000,0.000000
1694175674.919670,87968.000000,1694175674.906430,0.000000,0.000000,0.000000,0.000000,0.000000,0.000000
1694175674.934202,87969.000000,1694175674.916458,0.000000,0.000000,0.000000,0.000000,0.000000,0.000000
1694175674.943315,87970.000000,1694175674.926450,0.000000,0.000000,0.000000,0.000000,0.000000,0.000000
1694175674.944804,87971.000000,1694175674.936325,0.000000,0.000000,0.000000,0.000000,0.000000,0.000000
1694175674.957507,87972.000000,1694175674.946548,0.000000,0.000000,0.000000,0.000000,0.000000,0.000000
1694175674.970037,87973.000000,1694175674.956689,0.000000,0.000000,0.000000,0.000000,0.000000,0.000000
1694175674.982694,87974.000000,1694175674.966558,0.000000,0.000000,0.000000,0.000000,0.000000,0.000000
1694175674.992177,87975.000000,1694175674.976334,0.000000,0.000000,0.000000,0.000000,0.000000,0.000000
1694175674.996935,87976.000000,1694175674.986480,0.000000,0.000000,0.000000,0.000000,0.000000,0.000000
1694175675.002685,87977.000000,1694175674.996462,0.000000,0.000000,0.000000,0.000000,0.000000,0.000000
1694175675.013156,87978.000000,1694175675.006559,0.000000,0.000000,0.000000,0.000000,0.000000,0.000000
1694175675.022913,87979.000000,1694175675.017705,0.000000,0.000000,0.000000,0.000000,0.000000,0.000000
1694175675.030637,87980.000000,1694175675.026860,0.000000,0.000000,0.000000,0.000000,0.000000,0.000000
1694175675.045134,87981.000000,1694175675.036410,0.000000,0.000000,0.000000,0.000000,0.000000,0.000000
1694175675.054601,87982.000000,1694175675.046601,0.000000,0.000000,0.000000,0.000000,0.000000,0.000000
1694175675.067831,87983.000000,1694175675.056677,0.000000,0.000000,0.000000,0.000000,0.000000,0.000000
1694175675.074727,87984.000000,1694175675.066337,0.000000,0.000000,0.000000,0.000000,0.000000,0.000000
1694175675.082056,87985.000000,1694175675.076429,0.000000,0.000000,0.000000,0.000000,0.000000,0.000000
1694175675.093193,87986.000000,1694175675.086688,0.000000,0.000000,0.000000,0.000000,0.000000,0.000000
1694175675.102947,87987.000000,1694175675.096381,0.000000,0.000000,0.000000,0.000000,0.000000,0.000000
1694175675.113118,87988.000000,1694175675.106517,0.000000,0.000000,0.000000,0.000000,0.000000,0.000000
1694175675.124605,87989.000000,1694175675.116674,0.000000,0.000000,0.000000,0.000000,0.000000,0.000000
1694175675.135458,87990.000000,1694175675.127759,0.000000,0.000000,0.000000,0.000000,0.000000,0.000000
1694175675.146168,87991.000000,1694175675.136742,0.000000,0.000000,0.000000,0.000000,0.000000,0.000000
1694175675.158562,87992.000000,1694175675.147533,0.000000,0.000000,0.000000,0.000000,0.000000,0.000000
1694175675.165917,87993.000000,1694175675.157048,0.000000,0.000000,0.000000,0.000000,0.000000,0.000000
1694175675.172777,87994.000000,1694175675.166798,0.000000,0.000000,0.000000,0.000000,0.000000,0.000000
1694175675.181682,87995.000000,1694175675.176337,0.000000,0.000000,0.000000,0.000000,0.000000,0.000000
1694175675.198442,87996.000000,1694175675.186566,0.000000,0.000000,0.000000,0.000000,0.000000,0.000000
1694175675.207397,87997.000000,1694175675.196423,0.000000,0.000000,0.000000,0.000000,0.000000,0.000000
1694175675.216970,87998.000000,1694175675.206469,0.000000,0.000000,0.000000,0.000000,0.000000,0.000000
1694175675.227648,87999.000000,1694175675.216379,0.000000,0.000000,0.000000,0.000000,0.000000,0.000000
1694175675.237540,88000.000000,1694175675.230949,0.000000,0.000000,0.000000,0.000000,0.000000,0.000000
1694175675.244900,88001.000000,1694175675.236454,0.000000,0.000000,0.000000,0.000000,0.000000,0.000000
1694175675.255612,88002.000000,1694175675.246453,0.000000,0.000000,0.000000,0.000000,0.000000,0.000000
1694175675.261749,88003.000000,1694175675.257433,0.000000,0.000000,0.000000,0.000000,0.000000,0.000000
1694175675.271315,88004.000000,1694175675.266337,0.000000,0.000000,0.000000,0.000000,0.000000,0.000000
1694175675.283537,88005.000000,1694175675.276469,0.000000,0.000000,0.000000,0.000000,0.000000,0.000000
1694175675.290427,88006.000000,1694175675.286458,0.000000,0.000000,0.000000,0.000000,0.000000,0.000000
1694175675.305415,88007.000000,1694175675.296457,0.000000,0.000000,0.000000,0.000000,0.000000,0.000000
1694175675.316984,88008.000000,1694175675.306471,0.000000,0.000000,0.000000,0.000000,0.000000,0.000000
1694175675.329485,88009.000000,1694175675.316416,0.000000,0.000000,0.000000,0.000000,0.000000,0.000000
1694175675.340388,88010.000000,1694175675.326332,0.000000,0.000000,0.000000,0.000000,0.000000,0.000000
1694175675.350176,88011.000000,1694175675.337474,0.000000,0.000000,0.000000,0.000000,0.000000,0.000000
1694175675.355573,88012.000000,1694175675.346618,0.000000,0.000000,0.000000,0.000000,0.000000,0.000000
1694175675.364462,88013.000000,1694175675.356418,0.000000,0.000000,0.000000,0.000000,0.000000,0.000000
1694175675.378483,88014.000000,1694175675.366499,0.000000,0.000000,0.000000,0.000000,0.000000,0.000000
1694175675.390031,88015.000000,1694175675.376363,0.000000,0.000000,0.000000,0.000000,0.000000,0.000000
1694175675.401894,88016.000000,1694175675.386425,0.000000,0.000000,0.000000,0.000000,0.000000,0.000000
1694175675.418106,88017.000000,1694175675.396714,0.000000,0.000000,0.000000,0.000000,0.000000,0.000000
1694175675.430434,88019.000000,1694175675.416374,0.000000,0.000000,0.000000,0.000000,0.000000,0.000000
1694175675.445333,88020.000000,1694175675.426598,0.000000,0.000000,0.000000,0.000000,0.000000,0.000000
1694175675.453784,88022.000000,1694175675.446469,0.000000,0.000000,0.000000,0.000000,0.000000,0.000000
1694175675.462258,88023.000000,1694175675.456420,0.000000,0.000000,0.000000,0.000000,0.000000,0.000000
1694175675.472805,88024.000000,1694175675.466588,0.000000,0.000000,0.000000,0.000000,0.000000,0.000000
1694175675.479615,88025.000000,1694175675.476339,0.000000,0.000000,0.000000,0.000000,0.000000,0.000000
1694175675.492466,88026.000000,1694175675.486414,0.000000,0.000000,0.000000,0.000000,0.000000,0.000000
