__time,/hsrb/wrist_wrench/compensated/header/seq,/hsrb/wrist_wrench/compensated/header/stamp,/hsrb/wrist_wrench/compensated/wrench/force/x,/hsrb/wrist_wrench/compensated/wrench/force/y,/hsrb/wrist_wrench/compensated/wrench/force/z,/hsrb/wrist_wrench/compensated/wrench/torque/x,/hsrb/wrist_wrench/compensated/wrench/torque/y,/hsrb/wrist_wrench/compensated/wrench/torque/z
1694167637.808872,112687.000000,1694167637.798007,0.000000,0.000000,0.000000,0.000000,0.000000,0.000000
1694167637.818825,112689.000000,1694167637.809717,0.000000,0.000000,0.000000,0.000000,0.000000,0.000000
1694167637.832235,112690.000000,1694167637.822048,0.000000,0.000000,0.000000,0.000000,0.000000,0.000000
1694167637.841449,112691.000000,1694167637.829851,0.000000,0.000000,0.000000,0.000000,0.000000,0.000000
1694167637.855726,112692.000000,1694167637.839989,0.000000,0.000000,0.000000,0.000000,0.000000,0.000000
1694167637.864255,112693.000000,1694167637.849858,0.000000,0.000000,0.000000,0.000000,0.000000,0.000000
1694167637.877786,112694.000000,1694167637.860096,0.000000,0.000000,0.000000,0.000000,0.000000,0.000000
1694167637.882871,112695.000000,1694167637.870562,0.000000,0.000000,0.000000,0.000000,0.000000,0.000000
1694167637.894070,112696.000000,1694167637.879839,0.000000,0.000000,0.000000,0.000000,0.000000,0.000000
1694167637.901899,112697.000000,1694167637.890449,0.000000,0.000000,0.000000,0.000000,0.000000,0.000000
1694167637.912925,112698.000000,1694167637.901247,0.000000,0.000000,0.000000,0.000000,0.000000,0.000000
1694167637.924486,112699.000000,1694167637.910498,0.000000,0.000000,0.000000,0.000000,0.000000,0.000000
1694167637.936880,112700.000000,1694167637.925011,0.000000,0.000000,0.000000,0.000000,0.000000,0.000000
1694167637.945040,112701.000000,1694167637.938686,0.000000,0.000000,0.000000,0.000000,0.000000,0.000000
1694167637.954931,112702.000000,1694167637.940824,0.000000,0.000000,0.000000,0.000000,0.000000,0.000000
1694167637.971006,112703.000000,1694167637.958401,0.000000,0.000000,0.000000,0.000000,0.000000,0.000000
1694167637.979574,112705.000000,1694167637.969755,0.000000,0.000000,0.000000,0.000000,0.000000,0.000000
1694167637.986194,112706.000000,1694167637.980227,0.000000,0.000000,0.000000,0.000000,0.000000,0.000000
1694167637.999152,112707.000000,1694167637.993191,0.000000,0.000000,0.000000,0.000000,0.000000,0.000000
1694167638.032266,112708.000000,1694167637.999869,0.000000,0.000000,0.000000,0.000000,0.000000,0.000000
1694167638.037468,112710.000000,1694167638.019643,0.000000,0.000000,0.000000,0.000000,0.000000,0.000000
1694167638.051113,112711.000000,1694167638.031609,0.000000,0.000000,0.000000,0.000000,0.000000,0.000000
1694167638.059791,112713.000000,1694167638.049715,0.000000,0.000000,0.000000,0.000000,0.000000,0.000000
1694167638.066592,112714.000000,1694167638.061385,0.000000,0.000000,0.000000,0.000000,0.000000,0.000000
1694167638.098900,112715.000000,1694167638.088545,0.000000,0.000000,0.000000,0.000000,0.000000,0.000000
1694167638.114083,112716.000000,1694167638.095787,0.000000,0.000000,0.000000,0.000000,0.000000,0.000000
1694167638.124675,112717.000000,1694167638.113203,0.000000,0.000000,0.000000,0.000000,0.000000,0.000000
1694167638.132757,112718.000000,1694167638.119898,0.000000,0.000000,0.000000,0.000000,0.000000,0.000000
1694167638.150856,112719.000000,1694167638.130148,0.000000,0.000000,0.000000,0.000000,0.000000,0.000000
1694167638.168613,112720.000000,1694167638.162819,0.000000,0.000000,0.000000,0.000000,0.000000,0.000000
1694167638.189519,112721.000000,1694167638.164719,0.000000,0.000000,0.000000,0.000000,0.000000,0.000000
1694167638.202260,112723.000000,1694167638.184472,0.000000,0.000000,0.000000,0.000000,0.000000,0.000000
1694167638.232984,112724.000000,1694167638.194433,0.000000,0.000000,0.000000,0.000000,0.000000,0.000000
1694167638.235383,112725.000000,1694167638.204392,0.000000,0.000000,0.000000,0.000000,0.000000,0.000000
1694167638.270119,112727.000000,1694167638.230698,0.000000,0.000000,0.000000,0.000000,0.000000,0.000000
1694167638.273819,112729.000000,1694167638.247680,0.000000,0.000000,0.000000,0.000000,0.000000,0.000000
1694167638.285259,112732.000000,1694167638.274378,0.000000,0.000000,0.000000,0.000000,0.000000,0.000000
1694167638.300241,112733.000000,1694167638.289445,0.000000,0.000000,0.000000,0.000000,0.000000,0.000000
1694167638.315955,112734.000000,1694167638.296086,0.000000,0.000000,0.000000,0.000000,0.000000,0.000000
1694167638.329148,112736.000000,1694167638.314372,0.000000,0.000000,0.000000,0.000000,0.000000,0.000000
1694167638.335947,112737.000000,1694167638.324334,0.000000,0.000000,0.000000,0.000000,0.000000,0.000000
1694167638.354587,112738.000000,1694167638.336683,0.000000,0.000000,0.000000,0.000000,0.000000,0.000000
1694167638.366606,112739.000000,1694167638.344340,0.000000,0.000000,0.000000,0.000000,0.000000,0.000000
1694167638.385470,112740.000000,1694167638.356564,0.000000,0.000000,0.000000,0.000000,0.000000,0.000000
1694167638.423577,112742.000000,1694167638.374196,0.000000,0.000000,0.000000,0.000000,0.000000,0.000000
1694167638.433172,112743.000000,1694167638.384337,0.000000,0.000000,0.000000,0.000000,0.000000,0.000000
1694167638.464241,112747.000000,1694167638.427606,0.000000,0.000000,0.000000,0.000000,0.000000,0.000000
1694167638.495082,112749.000000,1694167638.450809,0.000000,0.000000,0.000000,0.000000,0.000000,0.000000
1694167638.498923,112750.000000,1694167638.454795,0.000000,0.000000,0.000000,0.000000,0.000000,0.000000
1694167638.498936,112751.000000,1694167638.465185,0.000000,0.000000,0.000000,0.000000,0.000000,0.000000
1694167638.525848,112753.000000,1694167638.484816,0.000000,0.000000,0.000000,0.000000,0.000000,0.000000
1694167638.525863,112754.000000,1694167638.495158,0.000000,0.000000,0.000000,0.000000,0.000000,0.000000
1694167638.536782,112756.000000,1694167638.514376,0.000000,0.000000,0.000000,0.000000,0.000000,0.000000
1694167638.551530,112757.000000,1694167638.525226,0.000000,0.000000,0.000000,0.000000,0.000000,0.000000
1694167638.562521,112758.000000,1694167638.534257,0.000000,0.000000,0.000000,0.000000,0.000000,0.000000
1694167638.573738,112759.000000,1694167638.545002,0.000000,0.000000,0.000000,0.000000,0.000000,0.000000
1694167638.602059,112761.000000,1694167638.564344,0.000000,0.000000,0.000000,0.000000,0.000000,0.000000
1694167638.617575,112762.000000,1694167638.574419,0.000000,0.000000,0.000000,0.000000,0.000000,0.000000
1694167638.639625,112765.000000,1694167638.604590,0.015156,0.004756,0.006065,-0.000104,0.000853,0.000192
1694167638.659260,112766.000000,1694167638.614278,0.021019,0.006722,0.008286,-0.000144,0.001176,0.000266
1694167638.693458,112769.000000,1694167638.644392,0.021758,0.007091,0.008031,-0.000151,0.001208,0.000277
1694167638.697516,112770.000000,1694167638.654165,0.018178,0.005888,0.006559,-0.000126,0.001009,0.000233
1694167638.725689,112774.000000,1694167638.694838,0.000000,0.000000,0.000000,0.000000,0.000000,0.000000
1694167638.746783,112777.000000,1694167638.724333,0.000000,0.000000,0.000000,0.000000,0.000000,0.000000
1694167638.774195,112779.000000,1694167638.744577,0.000000,0.000000,0.000000,0.000000,0.000000,0.000000
1694167638.816284,112782.000000,1694167638.774568,0.000000,0.000000,0.000000,0.000000,0.000000,0.000000
1694167638.850794,112786.000000,1694167638.816950,0.000000,0.000000,0.000000,0.000000,0.000000,0.000000
1694167638.905535,112790.000000,1694167638.854722,0.000000,0.000000,0.000000,0.000000,0.000000,0.000000
1694167638.918335,112792.000000,1694167638.874358,0.000000,0.000000,0.000000,0.000000,0.000000,0.000000
1694167638.937467,112795.000000,1694167638.904448,0.000000,0.000000,0.000000,0.000000,0.000000,0.000000
1694167638.951187,112797.000000,1694167638.924374,0.000000,0.000000,0.000000,0.000000,0.000000,0.000000
1694167638.958584,112798.000000,1694167638.934252,0.000000,0.000000,0.000000,0.000000,0.000000,0.000000
1694167638.962262,112799.000000,1694167638.945161,0.000000,0.000000,0.000000,0.000000,0.000000,0.000000
1694167638.971116,112800.000000,1694167638.954581,0.000000,0.000000,0.000000,0.000000,0.000000,0.000000
1694167638.971595,112801.000000,1694167638.964238,0.000000,0.000000,0.000000,0.000000,0.000000,0.000000
1694167638.979381,112802.000000,1694167638.974546,0.000000,0.000000,0.000000,0.000000,0.000000,0.000000
1694167638.993654,112803.000000,1694167638.984637,0.000000,0.000000,0.000000,0.000000,0.000000,0.000000
1694167639.007474,112804.000000,1694167638.994453,0.000000,0.000000,0.000000,0.000000,0.000000,0.000000
1694167639.021636,112805.000000,1694167639.004356,0.000000,0.000000,0.000000,0.000000,0.000000,0.000000
1694167639.030611,112806.000000,1694167639.014227,0.000000,0.000000,0.000000,0.000000,0.000000,0.000000
1694167639.037278,112807.000000,1694167639.027939,0.000000,0.000000,0.000000,0.000000,0.000000,0.000000
1694167639.055494,112808.000000,1694167639.034570,0.000000,0.000000,0.000000,0.000000,0.000000,0.000000
1694167639.060790,112810.000000,1694167639.055162,0.000000,0.000000,0.000000,0.000000,0.000000,0.000000
1694167639.070096,112811.000000,1694167639.064660,0.000000,0.000000,0.000000,0.000000,0.000000,0.000000
1694167639.086225,112812.000000,1694167639.074422,0.000000,0.000000,0.000000,0.000000,0.000000,0.000000
1694167639.104935,112813.000000,1694167639.084368,0.000000,0.000000,0.000000,0.000000,0.000000,0.000000
1694167639.111983,112815.000000,1694167639.104229,0.000000,0.000000,0.000000,0.000000,0.000000,0.000000
1694167639.118647,112816.000000,1694167639.114342,0.000000,0.000000,0.000000,0.000000,0.000000,0.000000
1694167639.131230,112817.000000,1694167639.124588,0.000000,0.000000,0.000000,0.000000,0.000000,0.000000
1694167639.140994,112818.000000,1694167639.134305,0.000000,0.000000,0.000000,0.000000,0.000000,0.000000
1694167639.155242,112819.000000,1694167639.144307,0.000000,0.000000,0.000000,0.000000,0.000000,0.000000
1694167639.165191,112820.000000,1694167639.154364,0.000000,0.000000,0.000000,0.000000,0.000000,0.000000
1694167639.173609,112821.000000,1694167639.164451,0.000000,0.000000,0.000000,0.000000,0.000000,0.000000
1694167639.185509,112822.000000,1694167639.174262,0.000000,0.000000,0.000000,0.000000,0.000000,0.000000
1694167639.197548,112823.000000,1694167639.184419,0.000000,0.000000,0.000000,0.000000,0.000000,0.000000
1694167639.208073,112824.000000,1694167639.194575,0.000000,0.000000,0.000000,0.000000,0.000000,0.000000
1694167639.218102,112825.000000,1694167639.204314,0.000000,0.000000,0.000000,0.000000,0.000000,0.000000
1694167639.223531,112826.000000,1694167639.214225,0.000000,0.000000,0.000000,0.000000,0.000000,0.000000
1694167639.230285,112827.000000,1694167639.224323,0.000000,0.000000,0.000000,0.000000,0.000000,0.000000
1694167639.241058,112828.000000,1694167639.234357,0.000000,0.000000,0.000000,0.000000,0.000000,0.000000
1694167639.258646,112829.000000,1694167639.244420,0.000000,0.000000,0.000000,0.000000,0.000000,0.000000
1694167639.276893,112830.000000,1694167639.254253,0.000000,0.000000,0.000000,0.000000,0.000000,0.000000
1694167639.291145,112832.000000,1694167639.275362,0.000000,0.000000,0.000000,0.000000,0.000000,0.000000
1694167639.302582,112833.000000,1694167639.284320,0.000000,0.000000,0.000000,0.000000,0.000000,0.000000
1694167639.305219,112834.000000,1694167639.294189,0.000000,0.000000,0.000000,0.000000,0.000000,0.000000
1694167639.313796,112835.000000,1694167639.304376,0.000000,0.000000,0.000000,0.000000,0.000000,0.000000
1694167639.325198,112836.000000,1694167639.314411,0.000000,0.000000,0.000000,0.000000,0.000000,0.000000
1694167639.337306,112837.000000,1694167639.324325,0.000000,0.000000,0.000000,0.000000,0.000000,0.000000
1694167639.353282,112838.000000,1694167639.334539,0.000000,0.000000,0.000000,0.000000,0.000000,0.000000
1694167639.361964,112839.000000,1694167639.344573,0.000000,0.000000,0.000000,0.000000,0.000000,0.000000
1694167639.363923,112840.000000,1694167639.354313,0.000000,0.000000,0.000000,0.000000,0.000000,0.000000
1694167639.383034,112841.000000,1694167639.364320,0.000000,0.000000,0.000000,0.000000,0.000000,0.000000
1694167639.402455,112843.000000,1694167639.384321,0.000000,0.000000,0.000000,0.000000,0.000000,0.000000
1694167639.422827,112845.000000,1694167639.404561,0.000000,0.000000,0.000000,0.000000,0.000000,0.000000
1694167639.448520,112847.000000,1694167639.425355,0.000000,0.000000,0.000000,0.000000,0.000000,0.000000
1694167639.461209,112849.000000,1694167639.444383,0.000000,0.000000,0.000000,0.000000,0.000000,0.000000
1694167639.475755,112850.000000,1694167639.454358,0.000000,0.000000,0.000000,0.000000,0.000000,0.000000
1694167639.480945,112852.000000,1694167639.474565,0.000000,0.000000,0.000000,0.000000,0.000000,0.000000
1694167639.495222,112853.000000,1694167639.484352,0.000000,0.000000,0.000000,0.000000,0.000000,0.000000
1694167639.508008,112854.000000,1694167639.494229,0.000000,0.000000,0.000000,0.000000,0.000000,0.000000
1694167639.516644,112855.000000,1694167639.504317,0.000000,0.000000,0.000000,0.000000,0.000000,0.000000
1694167639.525561,112856.000000,1694167639.514355,0.000000,0.000000,0.000000,0.000000,0.000000,0.000000
1694167639.533400,112857.000000,1694167639.524327,0.000000,0.000000,0.000000,0.000000,0.000000,0.000000
1694167639.545332,112858.000000,1694167639.537382,0.000000,0.000000,0.000000,0.000000,0.000000,0.000000
1694167639.553182,112859.000000,1694167639.544571,0.000000,0.000000,0.000000,0.000000,0.000000,0.000000
1694167639.569910,112860.000000,1694167639.554223,0.000000,0.000000,0.000000,0.000000,0.000000,0.000000
1694167639.581058,112861.000000,1694167639.565866,0.000000,0.000000,0.000000,0.000000,0.000000,0.000000
1694167639.584489,112862.000000,1694167639.574385,0.000000,0.000000,0.000000,0.000000,0.000000,0.000000
1694167639.594664,112863.000000,1694167639.584344,0.000000,0.000000,0.000000,0.000000,0.000000,0.000000
1694167639.604345,112864.000000,1694167639.594428,0.000000,0.000000,0.000000,0.000000,0.000000,0.000000
1694167639.609025,112865.000000,1694167639.604481,0.000000,0.000000,0.000000,0.000000,0.000000,0.000000
1694167639.621509,112866.000000,1694167639.614443,0.000000,0.000000,0.000000,0.000000,0.000000,0.000000
1694167639.630638,112867.000000,1694167639.624236,0.000000,0.000000,0.000000,0.000000,0.000000,0.000000
1694167639.640441,112868.000000,1694167639.634376,0.000000,0.000000,0.000000,0.000000,0.000000,0.000000
1694167639.652081,112869.000000,1694167639.644660,0.000000,0.000000,0.000000,0.000000,0.000000,0.000000
1694167639.667822,112870.000000,1694167639.654302,0.000000,0.000000,0.000000,0.000000,0.000000,0.000000
1694167639.677258,112871.000000,1694167639.664354,0.000000,0.000000,0.000000,0.000000,0.000000,0.000000
1694167639.680079,112872.000000,1694167639.674350,0.000000,0.000000,0.000000,0.000000,0.000000,0.000000
1694167639.694556,112873.000000,1694167639.684583,0.000000,0.000000,0.000000,0.000000,0.000000,0.000000
1694167639.704651,112874.000000,1694167639.694332,0.000000,0.000000,0.000000,0.000000,0.000000,0.000000
1694167639.717103,112875.000000,1694167639.705338,0.000000,0.000000,0.000000,0.000000,0.000000,0.000000
1694167639.724247,112876.000000,1694167639.714556,0.000000,0.000000,0.000000,0.000000,0.000000,0.000000
1694167639.731881,112877.000000,1694167639.724316,0.000000,0.000000,0.000000,0.000000,0.000000,0.000000
1694167639.743326,112878.000000,1694167639.734281,0.000000,0.000000,0.000000,0.000000,0.000000,0.000000
1694167639.756673,112879.000000,1694167639.745735,0.000000,0.000000,0.000000,0.000000,0.000000,0.000000
1694167639.768336,112880.000000,1694167639.754444,0.000000,0.000000,0.000000,0.000000,0.000000,0.000000
1694167639.781031,112881.000000,1694167639.764329,0.000000,0.000000,0.000000,0.000000,0.000000,0.000000
1694167639.784953,112882.000000,1694167639.774245,0.000000,0.000000,0.000000,0.000000,0.000000,0.000000
1694167639.793695,112883.000000,1694167639.787611,0.000000,0.000000,0.000000,0.000000,0.000000,0.000000
1694167639.803890,112884.000000,1694167639.795464,0.000000,0.000000,0.000000,0.000000,0.000000,0.000000
1694167639.811686,112885.000000,1694167639.804323,0.000000,0.000000,0.000000,0.000000,0.000000,0.000000
1694167639.826033,112886.000000,1694167639.814281,0.000000,0.000000,0.000000,0.000000,0.000000,0.000000
1694167639.848655,112887.000000,1694167639.835605,0.000000,0.000000,0.000000,0.000000,0.000000,0.000000
1694167639.864421,112888.000000,1694167639.836819,0.000000,0.000000,0.000000,0.000000,0.000000,0.000000
1694167639.868710,112889.000000,1694167639.845284,0.000000,0.000000,0.000000,0.000000,0.000000,0.000000
1694167639.871517,112890.000000,1694167639.854531,0.000000,0.000000,0.000000,0.000000,0.000000,0.000000
1694167639.878036,112891.000000,1694167639.864609,0.000000,0.000000,0.000000,0.000000,0.000000,0.000000
1694167639.884400,112892.000000,1694167639.875442,0.000000,0.000000,0.000000,0.000000,0.000000,0.000000
1694167639.891923,112893.000000,1694167639.886678,0.000000,0.000000,0.000000,0.000000,0.000000,0.000000
1694167639.903132,112894.000000,1694167639.894416,0.000000,0.000000,0.000000,0.000000,0.000000,0.000000
1694167639.915099,112895.000000,1694167639.904319,0.000000,0.000000,0.000000,0.000000,0.000000,0.000000
1694167639.925406,112896.000000,1694167639.914335,0.000000,0.000000,0.000000,0.000000,0.000000,0.000000
1694167639.935720,112897.000000,1694167639.924583,0.000000,0.000000,0.000000,0.000000,0.000000,0.000000
1694167639.944039,112898.000000,1694167639.935845,0.000000,0.000000,0.000000,0.000000,0.000000,0.000000
1694167639.955217,112899.000000,1694167639.945189,0.000000,0.000000,0.000000,0.000000,0.000000,0.000000
1694167639.962499,112900.000000,1694167639.954321,0.000000,0.000000,0.000000,0.000000,0.000000,0.000000
1694167639.974388,112901.000000,1694167639.968708,0.000000,0.000000,0.000000,0.000000,0.000000,0.000000
1694167639.983957,112902.000000,1694167639.974291,0.000000,0.000000,0.000000,0.000000,0.000000,0.000000
1694167639.995547,112903.000000,1694167639.984312,0.000000,0.000000,0.000000,0.000000,0.000000,0.000000
1694167640.013654,112904.000000,1694167639.994962,0.000000,0.000000,0.000000,0.000000,0.000000,0.000000
1694167640.018539,112905.000000,1694167640.004224,0.000000,0.000000,0.000000,0.000000,0.000000,0.000000
1694167640.022521,112906.000000,1694167640.014269,0.000000,0.000000,0.000000,0.000000,0.000000,0.000000
1694167640.032267,112907.000000,1694167640.024338,0.000000,0.000000,0.000000,0.000000,0.000000,0.000000
1694167640.041746,112908.000000,1694167640.034768,0.000000,0.000000,0.000000,0.000000,0.000000,0.000000
1694167640.051051,112909.000000,1694167640.044749,0.000000,0.000000,0.000000,0.000000,0.000000,0.000000
1694167640.063315,112910.000000,1694167640.054770,0.000000,0.000000,0.000000,0.000000,0.000000,0.000000
1694167640.077461,112911.000000,1694167640.068732,0.000000,0.000000,0.000000,0.000000,0.000000,0.000000
1694167640.085017,112912.000000,1694167640.074232,0.000000,0.000000,0.000000,0.000000,0.000000,0.000000
1694167640.102474,112913.000000,1694167640.084299,0.000000,0.000000,0.000000,0.000000,0.000000,0.000000
1694167640.112176,112915.000000,1694167640.104356,0.000000,0.000000,0.000000,0.000000,0.000000,0.000000
1694167640.129076,112916.000000,1694167640.114305,0.000000,0.000000,0.000000,0.000000,0.000000,0.000000
1694167640.134529,112917.000000,1694167640.124299,0.000000,0.000000,0.000000,0.000000,0.000000,0.000000
1694167640.134871,112918.000000,1694167640.134434,0.000000,0.000000,0.000000,0.000000,0.000000,0.000000
1694167640.150863,112919.000000,1694167640.144428,0.000000,0.000000,0.000000,0.000000,0.000000,0.000000
1694167640.166897,112920.000000,1694167640.154838,0.000000,0.000000,0.000000,0.000000,0.000000,0.000000
1694167640.177039,112921.000000,1694167640.165151,0.000000,0.000000,0.000000,0.000000,0.000000,0.000000
1694167640.188440,112922.000000,1694167640.174318,0.000000,0.000000,0.000000,0.000000,0.000000,0.000000
1694167640.197307,112923.000000,1694167640.184699,0.000000,0.000000,0.000000,0.000000,0.000000,0.000000
