__time,/hsrb/wrist_wrench/compensated/header/seq,/hsrb/wrist_wrench/compensated/header/stamp,/hsrb/wrist_wrench/compensated/wrench/force/x,/hsrb/wrist_wrench/compensated/wrench/force/y,/hsrb/wrist_wrench/compensated/wrench/force/z,/hsrb/wrist_wrench/compensated/wrench/torque/x,/hsrb/wrist_wrench/compensated/wrench/torque/y,/hsrb/wrist_wrench/compensated/wrench/torque/z
1694175920.786207,112460.000000,1694175920.780960,0.000000,0.000000,0.000000,0.000000,0.000000,0.000000
1694175920.796514,112461.000000,1694175920.791342,0.000000,0.000000,0.000000,0.000000,0.000000,0.000000
1694175920.812463,112462.000000,1694175920.801003,0.000000,0.000000,0.000000,0.000000,0.000000,0.000000
1694175920.822659,112463.000000,1694175920.811080,0.000000,0.000000,0.000000,0.000000,0.000000,0.000000
1694175920.830921,112464.000000,1694175920.821329,0.000000,0.000000,0.000000,0.000000,0.000000,0.000000
1694175920.846670,112465.000000,1694175920.832865,0.000000,0.000000,0.000000,0.000000,0.000000,0.000000
1694175920.859122,112466.000000,1694175920.841058,0.000000,0.000000,0.000000,0.000000,0.000000,0.000000
1694175920.864605,112467.000000,1694175920.851000,0.000000,0.000000,0.000000,0.000000,0.000000,0.000000
1694175920.871787,112468.000000,1694175920.861206,0.000000,0.000000,0.000000,0.000000,0.000000,0.000000
1694175920.881763,112469.000000,1694175920.872679,0.000000,0.000000,0.000000,0.000000,0.000000,0.000000
1694175920.890437,112470.000000,1694175920.880990,0.000000,0.000000,0.000000,0.000000,0.000000,0.000000
1694175920.904975,112471.000000,1694175920.891086,0.000000,0.000000,0.000000,0.000000,0.000000,0.000000
1694175920.920454,112472.000000,1694175920.901059,0.000000,0.000000,0.000000,0.000000,0.000000,0.000000
1694175920.930446,112473.000000,1694175920.911004,0.000000,0.000000,0.000000,0.000000,0.000000,0.000000
1694175920.931600,112474.000000,1694175920.920975,0.000000,0.000000,0.000000,0.000000,0.000000,0.000000
1694175920.938201,112475.000000,1694175920.931214,0.000000,0.000000,0.000000,0.000000,0.000000,0.000000
1694175920.951185,112476.000000,1694175920.940904,0.000000,0.000000,0.000000,0.000000,0.000000,0.000000
1694175920.966557,112477.000000,1694175920.951045,0.000000,0.000000,0.000000,0.000000,0.000000,0.000000
1694175920.970640,112478.000000,1694175920.961019,0.000000,0.000000,0.000000,0.000000,0.000000,0.000000
1694175920.983298,112479.000000,1694175920.971096,0.000000,0.000000,0.000000,0.000000,0.000000,0.000000
1694175921.007194,112480.000000,1694175920.992383,0.000000,0.000000,0.000000,0.000000,0.000000,0.000000
1694175921.011522,112482.000000,1694175921.001155,0.000000,0.000000,0.000000,0.000000,0.000000,0.000000
1694175921.018907,112483.000000,1694175921.010882,0.000000,0.000000,0.000000,0.000000,0.000000,0.000000
1694175921.032939,112484.000000,1694175921.022627,0.000000,0.000000,0.000000,0.000000,0.000000,0.000000
1694175921.040070,112485.000000,1694175921.031067,0.000000,0.000000,0.000000,0.000000,0.000000,0.000000
1694175921.048568,112486.000000,1694175921.040994,0.000000,0.000000,0.000000,0.000000,0.000000,0.000000
1694175921.063088,112487.000000,1694175921.051000,0.000000,0.000000,0.000000,0.000000,0.000000,0.000000
1694175921.072078,112488.000000,1694175921.060982,0.000000,0.000000,0.000000,0.000000,0.000000,0.000000
1694175921.081071,112489.000000,1694175921.071124,0.000000,0.000000,0.000000,0.000000,0.000000,0.000000
1694175921.091942,112490.000000,1694175921.081733,0.000000,0.000000,0.000000,0.000000,0.000000,0.000000
1694175921.104227,112491.000000,1694175921.091202,0.000000,0.000000,0.000000,0.000000,0.000000,0.000000
1694175921.118147,112492.000000,1694175921.100911,0.000000,0.000000,0.000000,0.000000,0.000000,0.000000
1694175921.131262,112494.000000,1694175921.121001,0.000000,0.000000,0.000000,0.000000,0.000000,0.000000
1694175921.138003,112495.000000,1694175921.130992,0.000000,0.000000,0.000000,0.000000,0.000000,0.000000
1694175921.147809,112496.000000,1694175921.141096,0.000000,0.000000,0.000000,0.000000,0.000000,0.000000
1694175921.155596,112497.000000,1694175921.150954,0.000000,0.000000,0.000000,0.000000,0.000000,0.000000
1694175921.171001,112498.000000,1694175921.160991,0.000000,0.000000,0.000000,0.000000,0.000000,0.000000
1694175921.179626,112499.000000,1694175921.173119,0.000000,0.000000,0.000000,0.000000,0.000000,0.000000
1694175921.189084,112500.000000,1694175921.180978,0.000000,0.000000,0.000000,0.000000,0.000000,0.000000
1694175921.201847,112501.000000,1694175921.191032,0.000000,0.000000,0.000000,0.000000,0.000000,0.000000
1694175921.223548,112502.000000,1694175921.201285,0.000000,0.000000,0.000000,0.000000,0.000000,0.000000
1694175921.230635,112504.000000,1694175921.220852,0.000000,0.000000,0.000000,0.000000,0.000000,0.000000
1694175921.242276,112505.000000,1694175921.231000,0.000000,0.000000,0.000000,0.000000,0.000000,0.000000
1694175921.254114,112506.000000,1694175921.241005,0.000000,0.000000,0.000000,0.000000,0.000000,0.000000
1694175921.268163,112507.000000,1694175921.253216,0.000000,0.000000,0.000000,0.000000,0.000000,0.000000
1694175921.277806,112508.000000,1694175921.262884,0.000000,0.000000,0.000000,0.000000,0.000000,0.000000
1694175921.292785,112509.000000,1694175921.273503,0.000000,0.000000,0.000000,0.000000,0.000000,0.000000
1694175921.294450,112510.000000,1694175921.281290,0.000000,0.000000,0.000000,0.000000,0.000000,0.000000
1694175921.299673,112511.000000,1694175921.292542,0.000000,0.000000,0.000000,0.000000,0.000000,0.000000
1694175921.312333,112512.000000,1694175921.300932,0.000000,0.000000,0.000000,0.000000,0.000000,0.000000
1694175921.331773,112513.000000,1694175921.310949,0.000000,0.000000,0.000000,0.000000,0.000000,0.000000
1694175921.338656,112514.000000,1694175921.321081,0.000000,0.000000,0.000000,0.000000,0.000000,0.000000
1694175921.347496,112515.000000,1694175921.331029,0.000000,0.000000,0.000000,0.000000,0.000000,0.000000
1694175921.352802,112516.000000,1694175921.340930,0.000000,0.000000,0.000000,0.000000,0.000000,0.000000
1694175921.358605,112517.000000,1694175921.351111,0.000000,0.000000,0.000000,0.000000,0.000000,0.000000
1694175921.375758,112518.000000,1694175921.360996,0.000000,0.000000,0.000000,0.000000,0.000000,0.000000
1694175921.385263,112519.000000,1694175921.371014,0.000000,0.000000,0.000000,0.000000,0.000000,0.000000
1694175921.402720,112520.000000,1694175921.381210,0.000000,0.000000,0.000000,0.000000,0.000000,0.000000
1694175921.409836,112521.000000,1694175921.390987,0.000000,0.000000,0.000000,0.000000,0.000000,0.000000
1694175921.414747,112522.000000,1694175921.400988,0.000000,0.000000,0.000000,0.000000,0.000000,0.000000
1694175921.422172,112523.000000,1694175921.410944,0.000000,0.000000,0.000000,0.000000,0.000000,0.000000
1694175921.433610,112524.000000,1694175921.421432,0.000000,0.000000,0.000000,0.000000,0.000000,0.000000
1694175921.444628,112525.000000,1694175921.435483,0.000000,0.000000,0.000000,0.000000,0.000000,0.000000
1694175921.452786,112526.000000,1694175921.440971,0.000000,0.000000,0.000000,0.000000,0.000000,0.000000
1694175921.461711,112527.000000,1694175921.451206,0.000000,0.000000,0.000000,0.000000,0.000000,0.000000
1694175921.476765,112528.000000,1694175921.462177,0.000000,0.000000,0.000000,0.000000,0.000000,0.000000
1694175921.486697,112529.000000,1694175921.471421,0.000000,0.000000,0.000000,0.000000,0.000000,0.000000
1694175921.492364,112530.000000,1694175921.481107,0.000000,0.000000,0.000000,0.000000,0.000000,0.000000
1694175921.504133,112531.000000,1694175921.496049,0.000000,0.000000,0.000000,0.000000,0.000000,0.000000
1694175921.516817,112532.000000,1694175921.500942,0.000000,0.000000,0.000000,0.000000,0.000000,0.000000
1694175921.533200,112534.000000,1694175921.521216,0.000000,0.000000,0.000000,0.000000,0.000000,0.000000
1694175921.544742,112535.000000,1694175921.531372,0.000000,0.000000,0.000000,0.000000,0.000000,0.000000
1694175921.556972,112536.000000,1694175921.541303,0.000000,0.000000,0.000000,0.000000,0.000000,0.000000
1694175921.567302,112537.000000,1694175921.551047,0.000000,0.000000,0.000000,0.000000,0.000000,0.000000
1694175921.573178,112538.000000,1694175921.561155,0.000000,0.000000,0.000000,0.000000,0.000000,0.000000
1694175921.586097,112539.000000,1694175921.570977,0.000000,0.000000,0.000000,0.000000,0.000000,0.000000
1694175921.594131,112540.000000,1694175921.580984,0.000000,0.000000,0.000000,0.000000,0.000000,0.000000
1694175921.604974,112541.000000,1694175921.591133,0.000000,0.000000,0.000000,0.000000,0.000000,0.000000
1694175921.616974,112542.000000,1694175921.600949,0.000000,0.000000,0.000000,0.000000,0.000000,0.000000
1694175921.624404,112543.000000,1694175921.611196,0.000000,0.000000,0.000000,0.000000,0.000000,0.000000
1694175921.636300,112544.000000,1694175921.624192,0.000000,0.000000,0.000000,0.000000,0.000000,0.000000
1694175921.647990,112545.000000,1694175921.631973,0.000000,0.000000,0.000000,0.000000,0.000000,0.000000
1694175921.662581,112546.000000,1694175921.641101,0.000000,0.000000,0.000000,0.000000,0.000000,0.000000
1694175921.678224,112548.000000,1694175921.663387,0.000000,0.000000,0.000000,0.000000,0.000000,0.000000
1694175921.684382,112549.000000,1694175921.671103,0.000000,0.000000,0.000000,0.000000,0.000000,0.000000
1694175921.693210,112550.000000,1694175921.681103,0.000000,0.000000,0.000000,0.000000,0.000000,0.000000
1694175921.703569,112551.000000,1694175921.691327,0.000000,0.000000,0.000000,0.000000,0.000000,0.000000
1694175921.711931,112552.000000,1694175921.701014,0.000000,0.000000,0.000000,0.000000,0.000000,0.000000
1694175921.724280,112553.000000,1694175921.710988,0.000000,0.000000,0.000000,0.000000,0.000000,0.000000
1694175921.732950,112554.000000,1694175921.721004,0.000000,0.000000,0.000000,0.000000,0.000000,0.000000
1694175921.750969,112555.000000,1694175921.731864,0.000000,0.000000,0.000000,0.000000,0.000000,0.000000
1694175921.762672,112557.000000,1694175921.751005,0.000000,0.000000,0.000000,0.000000,0.000000,0.000000
1694175921.779521,112558.000000,1694175921.762059,0.000000,0.000000,0.000000,0.000000,0.000000,0.000000
1694175921.793205,112560.000000,1694175921.780908,0.000000,0.000000,0.000000,0.000000,0.000000,0.000000
1694175921.812341,112561.000000,1694175921.801131,0.000000,0.000000,0.000000,0.000000,0.000000,0.000000
1694175921.818745,112562.000000,1694175921.812666,0.000000,0.000000,0.000000,0.000000,0.000000,0.000000
1694175921.829449,112563.000000,1694175921.822011,0.000000,0.000000,0.000000,0.000000,0.000000,0.000000
1694175921.846717,112564.000000,1694175921.832696,0.000000,0.000000,0.000000,0.000000,0.000000,0.000000
1694175921.860345,112565.000000,1694175921.842706,0.000000,0.000000,0.000000,0.000000,0.000000,0.000000
1694175921.871962,112566.000000,1694175921.850973,0.000000,0.000000,0.000000,0.000000,0.000000,0.000000
1694175921.873984,112567.000000,1694175921.861036,0.000000,0.000000,0.000000,0.000000,0.000000,0.000000
1694175921.889772,112568.000000,1694175921.871206,0.000000,0.000000,0.000000,0.000000,0.000000,0.000000
1694175921.897425,112570.000000,1694175921.891094,0.000000,0.000000,0.000000,0.000000,0.000000,0.000000
1694175921.911466,112571.000000,1694175921.900943,0.000000,0.000000,0.000000,0.000000,0.000000,0.000000
1694175921.931540,112572.000000,1694175921.910997,0.000000,0.000000,0.000000,0.000000,0.000000,0.000000
1694175921.941548,112574.000000,1694175921.931355,0.000000,0.000000,0.000000,0.000000,0.000000,0.000000
1694175921.955709,112575.000000,1694175921.941078,0.000000,0.000000,0.000000,0.000000,0.000000,0.000000
1694175921.963765,112576.000000,1694175921.951190,0.000000,0.000000,0.000000,0.000000,0.000000,0.000000
1694175921.982893,112577.000000,1694175921.961500,0.000000,0.000000,0.000000,0.000000,0.000000,0.000000
1694175921.992537,112579.000000,1694175921.981358,0.000000,0.000000,0.000000,0.000000,0.000000,0.000000
1694175922.008770,112580.000000,1694175921.990993,0.000000,0.000000,0.000000,0.000000,0.000000,0.000000
1694175922.022739,112582.000000,1694175922.011204,0.000000,0.000000,0.000000,0.000000,0.000000,0.000000
1694175922.033348,112583.000000,1694175922.020845,0.000000,0.000000,0.000000,0.000000,0.000000,0.000000
1694175922.051435,112584.000000,1694175922.034818,0.000000,0.000000,0.000000,0.000000,0.000000,0.000000
1694175922.061061,112586.000000,1694175922.051168,0.000000,0.000000,0.000000,0.000000,0.000000,0.000000
1694175922.074267,112587.000000,1694175922.060961,0.000000,0.000000,0.000000,0.000000,0.000000,0.000000
1694175922.087412,112588.000000,1694175922.070977,0.000000,0.000000,0.000000,0.000000,0.000000,0.000000
1694175922.096006,112589.000000,1694175922.081107,0.000000,0.000000,0.000000,0.000000,0.000000,0.000000
1694175922.101135,112590.000000,1694175922.091455,0.000000,0.000000,0.000000,0.000000,0.000000,0.000000
1694175922.110718,112591.000000,1694175922.101382,0.000000,0.000000,0.000000,0.000000,0.000000,0.000000
1694175922.118387,112592.000000,1694175922.111205,0.000000,0.000000,0.000000,0.000000,0.000000,0.000000
1694175922.127155,112593.000000,1694175922.121033,0.000000,0.000000,0.000000,0.000000,0.000000,0.000000
1694175922.141887,112594.000000,1694175922.130976,0.000000,0.000000,0.000000,0.000000,0.000000,0.000000
1694175922.152376,112595.000000,1694175922.140978,0.000000,0.000000,0.000000,0.000000,0.000000,0.000000
1694175922.160307,112596.000000,1694175922.151072,0.000000,0.000000,0.000000,0.000000,0.000000,0.000000
1694175922.167596,112597.000000,1694175922.161107,0.000000,0.000000,0.000000,0.000000,0.000000,0.000000
1694175922.176801,112598.000000,1694175922.171026,0.000000,0.000000,0.000000,0.000000,0.000000,0.000000
1694175922.190224,112599.000000,1694175922.181108,0.000000,0.000000,0.000000,0.000000,0.000000,0.000000
1694175922.200043,112600.000000,1694175922.190952,0.000000,0.000000,0.000000,0.000000,0.000000,0.000000
1694175922.208191,112601.000000,1694175922.201117,0.000000,0.000000,0.000000,0.000000,0.000000,0.000000
1694175922.218671,112602.000000,1694175922.210981,0.000000,0.000000,0.000000,0.000000,0.000000,0.000000
1694175922.228525,112603.000000,1694175922.221018,0.000000,0.000000,0.000000,0.000000,0.000000,0.000000
1694175922.237568,112604.000000,1694175922.231062,0.000000,0.000000,0.000000,0.000000,0.000000,0.000000
1694175922.249829,112605.000000,1694175922.241361,0.000000,0.000000,0.000000,0.000000,0.000000,0.000000
1694175922.258127,112606.000000,1694175922.251123,0.000000,0.000000,0.000000,0.000000,0.000000,0.000000
1694175922.265190,112607.000000,1694175922.261093,0.000000,0.000000,0.000000,0.000000,0.000000,0.000000
1694175922.279229,112608.000000,1694175922.270985,0.000000,0.000000,0.000000,0.000000,0.000000,0.000000
1694175922.292272,112609.000000,1694175922.281102,0.000000,0.000000,0.000000,0.000000,0.000000,0.000000
1694175922.307907,112610.000000,1694175922.290985,0.000000,0.000000,0.000000,0.000000,0.000000,0.000000
1694175922.315087,112611.000000,1694175922.300937,0.000000,0.000000,0.000000,0.000000,0.000000,0.000000
1694175922.319845,112612.000000,1694175922.310975,0.000000,0.000000,0.000000,0.000000,0.000000,0.000000
1694175922.334798,112613.000000,1694175922.321092,0.000000,0.000000,0.000000,0.000000,0.000000,0.000000
1694175922.348949,112614.000000,1694175922.334361,0.000000,0.000000,0.000000,0.000000,0.000000,0.000000
1694175922.354511,112615.000000,1694175922.340949,0.000000,0.000000,0.000000,0.000000,0.000000,0.000000
1694175922.366083,112616.000000,1694175922.350966,0.000000,0.000000,0.000000,0.000000,0.000000,0.000000
1694175922.376424,112617.000000,1694175922.360990,0.000000,0.000000,0.000000,0.000000,0.000000,0.000000
1694175922.380897,112618.000000,1694175922.370985,0.000000,0.000000,0.000000,0.000000,0.000000,0.000000
1694175922.392041,112619.000000,1694175922.381357,0.000000,0.000000,0.000000,0.000000,0.000000,0.000000
1694175922.410644,112620.000000,1694175922.391104,0.000000,0.000000,0.000000,0.000000,0.000000,0.000000
1694175922.419347,112621.000000,1694175922.400859,0.000000,0.000000,0.000000,0.000000,0.000000,0.000000
1694175922.427458,112622.000000,1694175922.410975,0.000000,0.000000,0.000000,0.000000,0.000000,0.000000
1694175922.452243,112623.000000,1694175922.423609,0.000000,0.000000,0.000000,0.000000,0.000000,0.000000
1694175922.453408,112625.000000,1694175922.441710,0.000000,0.000000,0.000000,0.000000,0.000000,0.000000
1694175922.462239,112626.000000,1694175922.450974,0.000000,0.000000,0.000000,0.000000,0.000000,0.000000
1694175922.474708,112627.000000,1694175922.462289,0.000000,0.000000,0.000000,0.000000,0.000000,0.000000
1694175922.481536,112628.000000,1694175922.471125,0.000000,0.000000,0.000000,0.000000,0.000000,0.000000
1694175922.500744,112629.000000,1694175922.480964,0.000000,0.000000,0.000000,0.000000,0.000000,0.000000
1694175922.512403,112630.000000,1694175922.491328,0.000000,0.000000,0.000000,0.000000,0.000000,0.000000
1694175922.517275,112631.000000,1694175922.500969,0.000000,0.000000,0.000000,0.000000,0.000000,0.000000
1694175922.525234,112632.000000,1694175922.511105,0.000000,0.000000,0.000000,0.000000,0.000000,0.000000
1694175922.537733,112633.000000,1694175922.520973,0.000000,0.000000,0.000000,0.000000,0.000000,0.000000
1694175922.544482,112634.000000,1694175922.531134,0.000000,0.000000,0.000000,0.000000,0.000000,0.000000
1694175922.556072,112635.000000,1694175922.540946,0.000000,0.000000,0.000000,0.000000,0.000000,0.000000
1694175922.561750,112636.000000,1694175922.551110,0.000000,0.000000,0.000000,0.000000,0.000000,0.000000
1694175922.569876,112637.000000,1694175922.561328,0.000000,0.000000,0.000000,0.000000,0.000000,0.000000
1694175922.576475,112638.000000,1694175922.571101,0.000000,0.000000,0.000000,0.000000,0.000000,0.000000
1694175922.586004,112639.000000,1694175922.580940,0.000000,0.000000,0.000000,0.000000,0.000000,0.000000
1694175922.600338,112640.000000,1694175922.590982,0.000000,0.000000,0.000000,0.000000,0.000000,0.000000
1694175922.607203,112641.000000,1694175922.601175,0.000000,0.000000,0.000000,0.000000,0.000000,0.000000
1694175922.620616,112642.000000,1694175922.611140,0.000000,0.000000,0.000000,0.000000,0.000000,0.000000
1694175922.630529,112643.000000,1694175922.622020,0.000000,0.000000,0.000000,0.000000,0.000000,0.000000
1694175922.637942,112644.000000,1694175922.631456,0.000000,0.000000,0.000000,0.000000,0.000000,0.000000
1694175922.649562,112645.000000,1694175922.641029,0.000000,0.000000,0.000000,0.000000,0.000000,0.000000
1694175922.666235,112646.000000,1694175922.651101,0.000000,0.000000,0.000000,0.000000,0.000000,0.000000
1694175922.676027,112647.000000,1694175922.661043,0.000000,0.000000,0.000000,0.000000,0.000000,0.000000
1694175922.684649,112648.000000,1694175922.671718,0.000000,0.000000,0.000000,0.000000,0.000000,0.000000
1694175922.698349,112649.000000,1694175922.680976,0.000000,0.000000,0.000000,0.000000,0.000000,0.000000
1694175922.710151,112650.000000,1694175922.691085,0.000000,0.000000,0.000000,0.000000,0.000000,0.000000
1694175922.721003,112651.000000,1694175922.702811,0.000000,0.000000,0.000000,0.000000,0.000000,0.000000
1694175922.724063,112652.000000,1694175922.711103,0.000000,0.000000,0.000000,0.000000,0.000000,0.000000
1694175922.734001,112653.000000,1694175922.721048,0.000000,0.000000,0.000000,0.000000,0.000000,0.000000
1694175922.742990,112654.000000,1694175922.732148,0.000000,0.000000,0.000000,0.000000,0.000000,0.000000
1694175922.757031,112655.000000,1694175922.741050,0.000000,0.000000,0.000000,0.000000,0.000000,0.000000
1694175922.760306,112656.000000,1694175922.751212,0.000000,0.000000,0.000000,0.000000,0.000000,0.000000
1694175922.769278,112657.000000,1694175922.760974,0.000000,0.000000,0.000000,0.000000,0.000000,0.000000
1694175922.779368,112658.000000,1694175922.771189,0.000000,0.000000,0.000000,0.000000,0.000000,0.000000
1694175922.788574,112659.000000,1694175922.780943,0.000000,0.000000,0.000000,0.000000,0.000000,0.000000
1694175922.801433,112660.000000,1694175922.790997,0.000000,0.000000,0.000000,0.000000,0.000000,0.000000
